nm,Intensity
526.553,835.82
526.69,835.4
526.827,835.74
526.963,835.98
527.1,835.2
527.237,835.64
527.373,835.02
527.51,835.26
527.647,835.46
527.784,835.46
527.92,835.18
528.057,835.62
528.194,834.9
528.33,835.8
528.467,835.32
528.603,835.36
528.74,835.54
528.877,836.04
529.013,835.48
529.15,835.2
529.286,835.6
529.423,835.04
529.56,835.06
529.696,835.04
529.833,834.88
529.969,835.8
530.106,835.14
530.242,835.36
530.379,836.02
530.515,835.36
530.652,835.52
530.788,835.98
530.925,835.14
531.061,835.16
531.198,835.22
531.334,835.16
531.47,835.82
531.607,834.9
531.743,835.5
531.88,835.36
532.016,842.26
532.152,866.16
532.289,856.14
532.425,837.38
532.562,835.4
532.698,835.54
532.834,835.26
532.971,835.26
533.107,835.12
533.243,835.1
533.38,835.02
533.516,835.56
533.652,836.7
533.789,845.22
533.925,872.8
534.061,903.7
534.197,913.72
534.334,914.74
534.47,915.26
534.606,916.24
534.742,919.08
534.879,918.32
535.015,917.82
535.151,917.34
535.287,919.2
535.423,919.68
535.56,921.66
535.696,921.0
535.832,922.08
535.968,923.0
536.104,923.96
536.24,922.66
536.376,923.22
536.513,923.24
536.649,922.76
536.785,923.74
536.921,925.82
537.057,925.38
537.193,925.1
537.329,925.9
537.465,926.4
537.601,926.18
537.737,927.58
537.873,927.6
538.009,926.06
538.145,928.58
538.281,928.98
538.417,929.64
538.553,931.24
538.689,930.72
538.825,932.7
538.961,929.88
539.097,931.2
539.233,931.04
539.369,933.08
539.505,933.22
539.641,933.68
539.777,934.18
539.913,934.34
540.049,933.94
540.185,934.98
540.321,933.98
540.457,935.06
540.592,933.46
540.728,936.1
540.864,936.84
541.0,937.4
541.136,938.3
541.272,937.42
541.408,937.02
541.543,938.74
541.679,941.02
541.815,939.26
541.951,938.36
542.087,938.6
542.222,939.7
542.358,938.76
542.494,940.22
542.63,942.96
542.765,943.88
542.901,941.92
543.037,942.78
543.173,944.28
543.308,944.06
543.444,943.28
543.58,947.28
543.715,945.46
543.851,945.94
543.987,947.26
544.123,944.8
544.258,943.66
544.394,946.44
544.529,947.0
544.665,947.18
544.801,946.8
544.936,949.16
545.072,948.06
545.208,950.38
545.343,949.64
545.479,949.82
545.614,948.9
545.75,952.1
545.886,950.58
546.021,951.9
546.157,951.0
546.292,951.72
546.428,951.22
546.563,953.52
546.699,953.1
546.834,953.7
546.97,955.84
547.105,954.7
547.241,955.98
547.376,956.36
547.512,956.24
547.647,952.72
547.783,953.28
547.918,954.68
548.054,955.78
548.189,954.2
548.325,956.96
548.46,957.64
548.595,955.46
548.731,956.44
548.866,956.64
549.002,957.32
549.137,957.56
549.272,957.88
549.408,958.24
549.543,960.34
549.679,960.28
549.814,959.62
549.949,959.08
550.085,959.68
550.22,959.66
550.355,959.42
550.491,958.88
550.626,961.62
550.761,961.1
550.896,961.26
551.032,962.96
551.167,963.06
551.302,962.38
551.438,962.44
551.573,962.56
551.708,963.32
551.843,963.48
551.979,965.02
552.114,964.14
552.249,966.44
552.384,966.32
552.519,966.72
552.655,964.78
552.79,964.06
552.925,965.66
553.06,964.76
553.195,966.4
553.331,966.2
553.466,966.58
553.601,965.06
553.736,965.84
553.871,968.96
554.006,968.0
554.141,968.4
554.276,967.16
554.412,969.8
554.547,969.84
554.682,970.2
554.817,967.8
554.952,968.32
555.087,968.62
555.222,969.38
555.357,968.78
555.492,970.68
555.627,968.2
555.762,970.42
555.897,969.48
556.032,971.78
556.167,968.72
556.302,970.16
556.437,971.78
556.572,972.66
556.707,968.98
556.842,972.38
556.977,972.46
557.112,972.04
557.247,971.96
557.382,972.98
557.517,971.5
557.652,973.74
557.787,973.94
557.922,973.88
558.057,972.3
558.192,972.56
558.327,972.94
558.462,972.62
558.596,970.54
558.731,974.14
558.866,972.22
559.001,973.66
559.136,974.96
559.271,974.82
559.406,978.06
559.54,976.88
559.675,977.78
559.81,977.06
559.945,977.74
560.08,977.04
560.215,978.98
560.349,980.02
560.484,979.4
560.619,979.12
560.754,979.62
560.889,978.66
561.023,979.1
561.158,983.34
561.293,979.98
561.428,978.56
561.562,979.94
561.697,979.06
561.832,980.4
561.966,982.28
562.101,981.82
562.236,980.32
562.371,979.98
562.505,982.0
562.64,984.62
562.775,984.86
562.909,984.4
563.044,987.1
563.179,985.46
563.313,986.88
563.448,986.42
563.583,987.66
563.717,987.3
563.852,991.44
563.986,993.28
564.121,993.98
564.256,990.4
564.39,992.16
564.525,991.02
564.659,990.44
564.794,991.68
564.929,991.38
565.063,993.24
565.198,994.34
565.332,993.88
565.467,992.22
565.601,994.16
565.736,993.9
565.87,994.86
566.005,995.04
566.139,997.22
566.274,997.08
566.408,996.02
566.543,995.66
566.677,996.1
566.812,994.42
566.946,995.54
567.081,994.46
567.215,993.96
567.35,995.08
567.484,992.72
567.619,994.98
567.753,994.84
567.888,996.32
568.022,994.52
568.156,995.6
568.291,996.78
568.425,998.86
568.56,998.36
568.694,998.92
568.828,998.62
568.963,1002.64
569.097,1001.26
569.231,1001.36
569.366,1001.74
569.5,1003.58
569.635,1002.34
569.769,1005.88
569.903,1003.5
570.038,1002.64
570.172,1002.8
570.306,1003.18
570.441,1003.88
570.575,1002.94
570.709,1005.1
570.843,1007.4
570.978,1004.16
571.112,1004.42
571.246,1005.88
571.38,1005.3
571.515,1009.56
571.649,1011.88
571.783,1006.84
571.917,1006.86
572.052,1006.5
572.186,1009.58
572.32,1009.62
572.454,1011.28
572.589,1011.62
572.723,1010.84
572.857,1010.12
572.991,1010.56
573.125,1010.9
573.26,1013.48
573.394,1013.56
573.528,1012.22
573.662,1012.0
573.796,1013.84
573.93,1015.72
574.064,1015.36
574.199,1013.34
574.333,1013.28
574.467,1016.06
574.601,1015.02
574.735,1014.88
574.869,1015.34
575.003,1016.1
575.137,1013.96
575.271,1013.96
575.406,1016.68
575.54,1017.66
575.674,1017.28
575.808,1017.1
575.942,1019.14
576.076,1019.5
576.21,1020.92
576.344,1022.76
576.478,1021.8
576.612,1022.9
576.746,1020.38
576.88,1019.86
577.014,1020.8
577.148,1019.36
577.282,1022.8
577.416,1021.9
577.55,1020.18
577.684,1020.4
577.818,1022.54
577.952,1017.64
578.086,1021.84
578.22,1020.88
578.354,1020.68
578.488,1020.62
578.622,1022.1
578.756,1022.34
578.89,1020.76
579.023,1022.46
579.157,1020.98
579.291,1021.86
579.425,1023.86
579.559,1023.48
579.693,1022.32
579.827,1021.2
579.961,1024.3
580.095,1021.46
580.228,1022.08
580.362,1022.7
580.496,1021.22
580.63,1022.56
580.764,1023.14
580.898,1024.08
581.032,1020.58
581.165,1020.52
581.299,1022.58
581.433,1024.98
581.567,1025.12
581.701,1023.7
581.834,1021.22
581.968,1023.42
582.102,1022.56
582.236,1024.56
582.37,1024.54
582.503,1023.36
582.637,1024.32
582.771,1025.18
582.905,1026.16
583.038,1025.36
583.172,1025.24
583.306,1025.82
583.44,1023.38
583.573,1025.96
583.707,1027.88
583.841,1026.1
583.974,1028.46
584.108,1028.88
584.242,1024.48
584.375,1025.58
584.509,1027.74
584.643,1026.8
584.777,1026.76
584.91,1027.22
585.044,1026.46
585.177,1027.94
585.311,1028.62
585.445,1027.22
585.578,1025.62
585.712,1029.38
585.846,1026.84
585.979,1028.54
586.113,1028.14
586.247,1031.16
586.38,1028.6
586.514,1029.06
586.647,1030.94
586.781,1030.62
586.914,1032.12
587.048,1030.72
587.182,1030.46
587.315,1029.82
587.449,1031.68
587.582,1030.8
587.716,1030.06
587.849,1030.96
587.983,1030.28
588.116,1029.2
588.25,1029.12
588.384,1030.7
588.517,1030.02
588.651,1028.42
588.784,1026.36
588.918,1026.0
589.051,1026.34
589.185,1027.3
589.318,1027.68
589.452,1029.76
589.585,1026.16
589.718,1027.02
589.852,1026.14
589.985,1030.22
590.119,1027.58
590.252,1030.14
590.386,1027.38
590.519,1027.96
590.653,1029.54
590.786,1029.9
590.919,1028.5
591.053,1029.76
591.186,1027.9
591.32,1031.52
591.453,1030.6
591.586,1029.16
591.72,1027.48
591.853,1027.44
591.987,1027.22
592.12,1028.6
592.253,1027.62
592.387,1027.32
592.52,1026.72
592.653,1026.74
592.787,1027.8
592.92,1026.14
593.053,1026.38
593.187,1026.5
593.32,1024.02
593.453,1025.22
593.587,1025.94
593.72,1027.4
593.853,1025.82
593.987,1024.6
594.12,1024.66
594.253,1026.74
594.386,1026.44
594.52,1026.42
594.653,1027.48
594.786,1024.42
594.919,1026.16
595.053,1025.86
595.186,1026.92
595.319,1026.34
595.452,1025.66
595.586,1026.56
595.719,1025.76
595.852,1026.7
595.985,1025.86
596.119,1024.32
596.252,1026.06
596.385,1027.58
596.518,1024.64
596.651,1025.08
596.785,1026.4
596.918,1023.82
597.051,1025.5
597.184,1024.92
597.317,1026.16
597.45,1025.54
597.584,1022.5
597.717,1025.06
597.85,1025.3
597.983,1023.88
598.116,1026.42
598.249,1026.24
598.382,1027.52
598.516,1026.44
598.649,1024.14
598.782,1026.78
598.915,1024.5
599.048,1026.64
599.181,1026.78
599.314,1027.62
599.447,1027.4
599.58,1023.26
599.713,1024.66
599.847,1025.16
599.98,1024.22
600.113,1025.42
600.246,1024.38
600.379,1022.7
600.512,1023.5
600.645,1021.18
600.778,1020.74
600.911,1022.5
601.044,1021.38
601.177,1023.2
601.31,1021.16
601.443,1020.02
601.576,1018.52
601.709,1018.84
601.842,1018.02
601.975,1021.38
602.108,1019.26
602.241,1017.3
602.374,1019.04
602.507,1018.14
602.64,1018.9
602.773,1019.78
602.906,1017.64
603.039,1018.4
603.172,1019.06
603.305,1018.98
603.438,1019.24
603.571,1015.54
603.703,1017.12
603.836,1017.48
603.969,1017.0
604.102,1016.04
604.235,1017.3
604.368,1015.48
604.501,1014.44
604.634,1015.64
604.767,1013.64
604.9,1013.36
605.033,1011.64
605.165,1011.7
605.298,1009.82
605.431,1008.8
605.564,1007.72
605.697,1007.1
605.83,1007.14
605.963,1008.88
606.095,1006.44
606.228,1008.5
606.361,1006.12
606.494,1005.8
606.627,1001.64
606.76,1004.26
606.892,1007.22
607.025,1005.02
607.158,1006.3
607.291,1006.6
607.424,1005.48
607.556,1007.58
607.689,1005.68
607.822,1002.66
607.955,1004.44
608.088,1004.4
608.22,1006.96
608.353,1004.82
608.486,1007.6
608.619,1007.16
608.751,1006.38
608.884,1006.74
609.017,1004.78
609.15,1006.04
609.282,1006.16
609.415,1005.74
609.548,1004.66
609.681,1003.54
609.813,1002.82
609.946,1006.36
610.079,1001.4
610.211,1004.04
610.344,1003.12
610.477,1001.34
610.609,1005.2
610.742,1002.36
610.875,1001.02
611.007,1002.7
611.14,1000.26
611.273,999.66
611.405,1002.68
611.538,1001.1
611.671,1000.68
611.803,999.7
611.936,1001.56
612.069,1002.14
612.201,1001.2
612.334,1002.32
612.467,1003.18
612.599,1003.08
612.732,1001.3
612.864,1003.44
612.997,1003.4
613.13,1005.9
613.262,1004.24
613.395,1004.92
613.527,1003.04
613.66,1005.4
613.793,1002.22
613.925,1003.02
614.058,1003.96
614.19,1002.48
614.323,1004.86
614.456,1001.66
614.588,1002.6
614.721,1003.06
614.853,1002.4
614.986,1001.5
615.118,1003.3
615.251,1003.9
615.383,1000.76
615.516,1002.2
615.648,1000.28
615.781,1001.42
615.913,1000.02
616.046,1001.06
616.178,1000.76
616.311,1002.18
616.443,997.78
616.576,998.1
616.708,1000.66
616.841,998.94
616.973,1001.48
617.106,999.48
617.238,1000.66
617.371,998.68
617.503,1001.28
617.636,1001.3
617.768,998.26
617.901,1001.36
618.033,1001.7
618.166,1000.24
618.298,999.94
618.43,997.86
618.563,997.3
618.695,997.06
618.828,997.14
618.96,998.78
619.093,998.46
619.225,994.92
619.357,999.26
619.49,1000.38
619.622,997.04
619.755,997.64
619.887,996.96
620.019,998.72
620.152,996.14
620.284,995.76
620.417,995.18
620.549,996.56
620.681,994.78
620.814,996.32
620.946,996.04
621.078,994.76
621.211,996.44
621.343,995.8
621.475,994.98
621.608,994.52
621.74,993.7
621.872,993.78
622.005,995.08
622.137,994.08
622.269,996.18
622.402,997.62
622.534,996.64
622.666,992.46
622.799,997.88
622.931,998.52
623.063,994.04
623.195,995.02
623.328,994.04
623.46,993.86
623.592,994.74
623.725,993.52
623.857,995.1
623.989,996.18
624.121,994.84
624.254,993.1
624.386,994.88
624.518,993.8
624.65,994.5
624.783,993.72
624.915,992.2
625.047,991.44
625.179,991.5
625.312,992.04
625.444,990.46
625.576,993.56
625.708,991.82
625.841,992.2
625.973,991.16
626.105,991.78
626.237,991.28
626.369,993.42
626.502,991.16
626.634,991.52
626.766,998.14
626.898,1001.52
627.03,1010.56
627.163,1018.48
627.295,1018.26
627.427,1015.48
627.559,1010.04
627.691,1008.08
627.823,1005.3
627.956,1002.78
628.088,1005.58
628.22,1004.98
628.352,1008.56
628.484,1021.18
628.616,1025.96
628.748,1019.12
628.881,1008.9
629.013,1006.38
629.145,1005.5
629.277,1002.88
629.409,1000.84
629.541,1001.78
629.673,999.16
629.805,996.96
629.937,999.78
630.07,994.5
630.202,993.74
630.334,996.78
630.466,995.64
630.598,994.04
630.73,991.88
630.862,993.84
630.994,991.64
631.126,987.52
631.258,986.12
631.39,987.82
631.522,986.24
631.655,985.24
631.787,984.98
631.919,984.64
632.051,984.04
632.183,985.98
632.315,983.68
632.447,982.12
632.579,981.64
632.711,981.96
632.843,982.54
632.975,980.3
633.107,980.04
633.239,979.92
633.371,980.52
633.503,978.84
633.635,977.54
633.767,978.94
633.899,978.32
634.031,978.02
634.163,976.54
634.295,978.28
634.427,976.54
634.559,977.9
634.691,977.22
634.823,977.82
634.955,976.72
635.087,977.5
635.219,977.24
635.351,975.7
635.483,976.62
635.615,976.02
635.747,975.48
635.879,975.74
636.011,975.84
636.143,974.54
636.275,976.6
636.406,976.44
636.538,976.06
636.67,975.28
636.802,974.86
636.934,975.54
637.066,974.12
637.198,974.34
637.33,973.78
637.462,974.1
637.594,974.4
637.726,973.52
637.858,972.94
637.989,971.76
638.121,973.5
638.253,974.5
638.385,975.06
638.517,973.08
638.649,970.56
638.781,973.46
638.913,973.56
639.045,972.62
639.176,971.78
639.308,970.8
639.44,971.76
639.572,971.18
639.704,970.54
639.836,971.16
639.968,969.96
640.1,970.24
640.231,970.2
640.363,971.02
640.495,971.44
640.627,970.86
640.759,968.44
640.891,969.72
641.022,969.2
641.154,970.98
641.286,968.44
641.418,968.88
641.55,970.16
641.682,967.84
641.813,967.04
641.945,968.8
642.077,968.1
642.209,968.54
642.341,965.9
642.472,966.36
642.604,966.6
642.736,964.7
642.868,965.84
643.0,964.24
643.131,965.42
643.263,965.02
643.395,965.08
643.527,962.86
643.658,962.84
643.79,960.88
643.922,962.04
644.054,962.64
644.186,961.18
644.317,961.08
644.449,961.52
644.581,960.64
644.713,958.78
644.844,960.14
644.976,958.0
645.108,959.86
645.24,960.4
645.371,959.62
645.503,958.38
645.635,958.84
645.767,959.22
645.898,958.1
646.03,959.9
646.162,956.74
646.293,956.62
646.425,956.6
646.557,956.28
646.689,957.2
646.82,958.28
646.952,957.7
647.084,956.56
647.215,958.96
647.347,959.62
647.479,956.88
647.61,956.86
647.742,957.12
647.874,956.7
648.006,956.1
648.137,956.34
648.269,955.22
648.401,956.12
648.532,955.46
648.664,955.26
648.796,953.94
648.927,955.5
649.059,953.2
649.191,954.84
649.322,953.68
649.454,953.5
649.586,952.9
649.717,951.6
649.849,951.98
649.981,950.2
650.112,951.22
650.244,950.2
650.375,951.9
650.507,951.62
650.639,951.88
650.77,951.42
650.902,950.76
651.034,950.92
651.165,950.02
651.297,948.8
651.429,950.64
651.56,947.12
651.692,950.02
651.823,950.34
651.955,947.62
652.087,950.66
652.218,950.8
652.35,947.92
652.481,949.0
652.613,950.34
652.745,949.48
652.876,948.68
653.008,947.78
653.139,949.14
653.271,948.54
653.403,948.08
653.534,947.76
653.666,947.52
653.797,947.76
653.929,946.98
654.061,948.3
654.192,946.74
654.324,945.84
654.455,947.26
654.587,946.7
654.718,946.64
654.85,945.96
654.982,945.3
655.113,945.08
655.245,947.06
655.376,946.76
655.508,944.46
655.639,946.44
655.771,944.78
655.902,944.12
656.034,944.26
656.166,943.38
656.297,942.32
656.429,942.78
656.56,942.5
656.692,943.46
656.823,943.62
656.955,944.0
657.086,943.2
657.218,945.08
657.349,941.58
657.481,942.3
657.612,943.9
657.744,941.98
657.875,941.44
658.007,941.18
658.138,943.16
658.27,942.18
658.401,941.26
658.533,943.68
658.664,942.12
658.796,941.48
658.927,942.16
659.059,941.08
659.19,942.68
659.322,941.04
659.453,942.02
659.585,941.42
659.716,941.06
659.848,942.28
659.979,940.12
660.111,939.14
660.242,938.38
660.374,938.04
660.505,940.04
660.637,938.62
660.768,937.24
660.9,936.52
661.031,937.34
661.163,937.4
661.294,937.3
661.426,938.86
661.557,936.14
661.689,935.78
661.82,936.74
661.951,935.42
662.083,937.22
662.214,934.32
662.346,934.94
662.477,935.56
662.609,934.38
662.74,935.86
662.872,935.66
663.003,934.32
663.135,933.62
