nm,Intensity
526.553,834.7
526.69,835.88
526.827,835.56
526.963,835.44
527.1,834.84
527.237,835.2
527.373,834.96
527.51,835.32
527.647,835.24
527.784,835.4
527.92,835.08
528.057,835.16
528.194,835.08
528.33,836.42
528.467,835.04
528.603,835.22
528.74,835.4
528.877,835.56
529.013,835.0
529.15,834.7
529.286,835.6
529.423,834.54
529.56,835.24
529.696,834.92
529.833,835.54
529.969,834.98
530.106,835.38
530.242,835.84
530.379,835.02
530.515,834.78
530.652,835.46
530.788,834.94
530.925,835.5
531.061,835.34
531.198,835.22
531.334,835.26
531.47,834.94
531.607,835.76
531.743,835.34
531.88,835.44
532.016,840.06
532.152,854.1
532.289,848.44
532.425,836.68
532.562,835.38
532.698,834.84
532.834,835.22
532.971,835.5
533.107,835.22
533.243,835.16
533.38,834.78
533.516,835.9
533.652,836.46
533.789,845.52
533.925,876.96
534.061,908.98
534.197,920.04
534.334,919.54
534.47,919.78
534.606,920.28
534.742,921.1
534.879,922.48
535.015,919.48
535.151,921.96
535.287,918.84
535.423,917.82
535.56,920.42
535.696,919.66
535.832,921.32
535.968,919.42
536.104,921.22
536.24,919.46
536.376,921.3
536.513,920.7
536.649,919.5
536.785,919.86
536.921,921.86
537.057,921.46
537.193,920.66
537.329,921.5
537.465,922.12
537.601,921.84
537.737,925.34
537.873,925.64
538.009,926.72
538.145,926.28
538.281,927.12
538.417,927.56
538.553,927.92
538.689,926.56
538.825,928.12
538.961,926.86
539.097,928.82
539.233,926.42
539.369,926.42
539.505,924.52
539.641,925.78
539.777,926.68
539.913,925.92
540.049,927.22
540.185,928.02
540.321,924.66
540.457,926.64
540.592,925.52
540.728,924.62
540.864,923.98
541.0,925.22
541.136,925.34
541.272,927.52
541.408,927.1
541.543,926.32
541.679,929.08
541.815,928.28
541.951,926.76
542.087,927.58
542.222,927.92
542.358,929.04
542.494,928.98
542.63,930.36
542.765,929.84
542.901,928.94
543.037,929.42
543.173,933.02
543.308,931.5
543.444,931.66
543.58,931.32
543.715,932.62
543.851,934.5
543.987,933.64
544.123,935.36
544.258,935.92
544.394,939.02
544.529,939.66
544.665,941.54
544.801,943.86
544.936,949.8
545.072,950.96
545.208,949.5
545.343,949.2
545.479,944.9
545.614,942.72
545.75,940.6
545.886,937.56
546.021,935.52
546.157,935.46
546.292,934.5
546.428,933.9
546.563,934.9
546.699,935.44
546.834,936.02
546.97,934.06
547.105,935.32
547.241,934.92
547.376,936.26
547.512,936.06
547.647,935.08
547.783,934.24
547.918,936.18
548.054,936.12
548.189,936.42
548.325,935.92
548.46,937.64
548.595,936.98
548.731,937.14
548.866,939.78
549.002,939.0
549.137,940.64
549.272,941.12
549.408,945.02
549.543,945.34
549.679,948.78
549.814,947.92
549.949,950.16
550.085,950.38
550.22,947.1
550.355,945.58
550.491,942.14
550.626,938.86
550.761,940.0
550.896,937.28
551.032,938.32
551.167,939.22
551.302,936.0
551.438,937.64
551.573,936.46
551.708,936.36
551.843,936.28
551.979,936.54
552.114,935.34
552.249,935.34
552.384,934.4
552.519,935.36
552.655,936.22
552.79,935.0
552.925,935.68
553.06,933.34
553.195,933.36
553.331,933.7
553.466,936.0
553.601,935.18
553.736,934.62
553.871,933.96
554.006,931.72
554.141,934.9
554.276,933.4
554.412,933.18
554.547,933.54
554.682,932.3
554.817,934.32
554.952,930.82
555.087,932.0
555.222,933.38
555.357,931.16
555.492,930.68
555.627,931.0
555.762,931.38
555.897,933.52
556.032,931.32
556.167,931.66
556.302,932.8
556.437,931.78
556.572,932.68
556.707,932.16
556.842,931.34
556.977,931.16
557.112,932.06
557.247,932.3
557.382,931.42
557.517,930.54
557.652,933.24
557.787,931.96
557.922,933.16
558.057,932.4
558.192,933.72
558.327,930.62
558.462,932.44
558.596,932.36
558.731,930.88
558.866,930.58
559.001,931.42
559.136,932.12
559.271,930.94
559.406,932.8
559.54,932.68
559.675,931.68
559.81,933.02
559.945,932.62
560.08,933.96
560.215,932.76
560.349,934.46
560.484,932.8
560.619,934.16
560.754,933.78
560.889,934.62
561.023,933.2
561.158,931.82
561.293,934.14
561.428,933.04
561.562,933.26
561.697,933.96
561.832,932.4
561.966,934.2
562.101,932.82
562.236,934.68
562.371,935.3
562.505,934.58
562.64,933.36
562.775,936.64
562.909,935.54
563.044,937.04
563.179,937.58
563.313,937.7
563.448,936.78
563.583,939.8
563.717,939.4
563.852,945.6
563.986,955.14
564.121,957.68
564.256,949.48
564.39,944.0
564.525,941.94
564.659,944.44
564.794,943.64
564.929,941.62
565.063,943.24
565.198,940.92
565.332,941.28
565.467,942.68
565.601,942.72
565.736,941.86
565.87,944.76
566.005,948.92
566.139,960.82
566.274,960.98
566.408,949.32
566.543,944.4
566.677,941.82
566.812,942.08
566.946,943.12
567.081,942.38
567.215,943.12
567.35,942.14
567.484,946.1
567.619,942.66
567.753,943.22
567.888,941.48
568.022,943.32
568.156,941.86
568.291,942.42
568.425,943.52
568.56,943.2
568.694,944.8
568.828,944.28
568.963,944.54
569.097,945.4
569.231,946.52
569.366,948.1
569.5,948.98
569.635,949.44
569.769,946.82
569.903,948.24
570.038,949.4
570.172,946.92
570.306,950.14
570.441,950.66
570.575,950.42
570.709,952.38
570.843,951.4
570.978,949.36
571.112,953.96
571.246,954.98
571.38,959.94
571.515,979.82
571.649,981.14
571.783,964.82
571.917,958.44
572.052,958.36
572.186,956.6
572.32,955.8
572.454,954.08
572.589,955.1
572.723,955.74
572.857,955.0
572.991,955.24
573.125,955.58
573.26,956.4
573.394,957.64
573.528,956.44
573.662,958.16
573.796,958.96
573.93,960.84
574.064,960.14
574.199,959.04
574.333,957.16
574.467,957.18
574.601,957.58
574.735,958.34
574.869,961.28
575.003,959.22
575.137,958.64
575.271,959.82
575.406,962.96
575.54,969.5
575.674,970.8
575.808,969.0
575.942,968.86
576.076,973.6
576.21,980.78
576.344,989.7
576.478,981.24
576.612,976.1
576.746,973.28
576.88,976.28
577.014,977.76
577.148,977.54
577.282,971.82
577.416,971.08
577.55,964.42
577.684,964.48
577.818,962.2
577.952,962.78
578.086,961.98
578.22,962.32
578.354,963.4
578.488,961.94
578.622,961.52
578.756,960.92
578.89,960.58
579.023,962.24
579.157,961.32
579.291,962.68
579.425,962.44
579.559,962.78
579.693,962.64
579.827,961.3
579.961,961.46
580.095,960.6
580.228,960.58
580.362,959.56
580.496,960.24
580.63,960.88
580.764,961.7
580.898,958.9
581.032,960.72
581.165,961.7
581.299,959.32
581.433,959.88
581.567,960.76
581.701,959.78
581.834,960.2
581.968,958.06
582.102,960.94
582.236,961.8
582.37,959.96
582.503,960.3
582.637,961.34
582.771,959.88
582.905,960.46
583.038,961.74
583.172,960.74
583.306,958.76
583.44,958.56
583.573,960.78
583.707,960.42
583.841,959.76
583.974,960.5
584.108,960.2
584.242,960.06
584.375,958.14
584.509,958.8
584.643,959.68
584.777,959.66
584.91,959.44
585.044,960.98
585.177,960.52
585.311,960.5
585.445,960.16
585.578,961.48
585.712,960.24
585.846,960.68
585.979,961.58
586.113,959.96
586.247,961.22
586.38,960.12
586.514,962.62
586.647,961.38
586.781,960.54
586.914,960.08
587.048,958.44
587.182,961.5
587.315,960.32
587.449,960.18
587.582,960.32
587.716,958.1
587.849,960.32
587.983,958.08
588.116,959.76
588.25,960.06
588.384,960.12
588.517,958.74
588.651,959.34
588.784,960.16
588.918,958.02
589.051,957.68
589.185,957.68
589.318,957.98
589.452,956.18
589.585,956.34
589.718,958.12
589.852,958.86
589.985,957.72
590.119,955.8
590.252,956.26
590.386,957.28
590.519,957.2
590.653,956.32
590.786,957.96
590.919,957.26
591.053,955.86
591.186,957.34
591.32,956.42
591.453,956.04
591.586,955.82
591.72,955.84
591.853,956.4
591.987,954.8
592.12,955.62
592.253,955.9
592.387,953.88
592.52,952.88
592.653,955.28
592.787,954.02
592.92,954.98
593.053,952.36
593.187,952.4
593.32,951.64
593.453,950.6
593.587,952.14
593.72,953.5
593.853,953.28
593.987,951.72
594.12,952.2
594.253,952.9
594.386,950.72
594.52,952.16
594.653,952.22
594.786,954.0
594.919,951.84
595.053,950.56
595.186,954.02
595.319,951.72
595.452,951.68
595.586,951.78
595.719,951.24
595.852,951.94
595.985,951.0
596.119,951.32
596.252,949.96
596.385,951.2
596.518,950.52
596.651,949.94
596.785,951.16
596.918,948.98
597.051,950.12
597.184,951.1
597.317,950.76
597.45,949.76
597.584,950.06
597.717,949.98
597.85,949.06
597.983,950.9
598.116,949.78
598.249,952.04
598.382,953.02
598.516,951.62
598.649,949.18
598.782,951.0
598.915,951.5
599.048,948.26
599.181,951.18
599.314,950.12
599.447,949.98
599.58,950.88
599.713,949.16
599.847,950.16
599.98,947.62
600.113,949.32
600.246,949.12
600.379,950.48
600.512,947.48
600.645,948.64
600.778,947.22
600.911,947.86
601.044,946.52
601.177,946.08
601.31,947.1
601.443,946.08
601.576,945.54
601.709,947.94
601.842,946.2
601.975,946.16
602.108,945.4
602.241,945.92
602.374,947.18
602.507,947.04
602.64,945.42
602.773,945.32
602.906,945.2
603.039,945.12
603.172,946.42
603.305,944.86
603.438,945.92
603.571,942.82
603.703,945.66
603.836,945.36
603.969,944.02
604.102,943.72
604.235,942.06
604.368,941.32
604.501,945.2
604.634,943.24
604.767,942.98
604.9,941.6
605.033,941.42
605.165,942.46
605.298,939.88
605.431,940.78
605.564,941.06
605.697,939.92
605.83,937.26
605.963,939.08
606.095,938.76
606.228,936.94
606.361,937.2
606.494,938.88
606.627,937.82
606.76,937.4
606.892,937.94
607.025,938.98
607.158,939.06
607.291,939.32
607.424,940.52
607.556,938.48
607.689,936.0
607.822,939.06
607.955,940.12
608.088,938.24
608.22,937.32
608.353,939.46
608.486,938.1
608.619,938.1
608.751,937.62
608.884,938.98
609.017,938.02
609.15,936.66
609.282,938.06
609.415,937.54
609.548,936.42
609.681,938.88
609.813,937.44
609.946,936.56
610.079,936.1
610.211,936.22
610.344,934.52
610.477,936.5
610.609,936.96
610.742,933.82
610.875,935.96
611.007,934.84
611.14,934.08
611.273,936.5
611.405,935.84
611.538,934.82
611.671,935.88
611.803,934.58
611.936,934.64
612.069,934.98
612.201,936.28
612.334,936.34
612.467,936.04
612.599,934.78
612.732,935.14
612.864,937.58
612.997,936.2
613.13,935.08
613.262,937.14
613.395,937.66
613.527,936.12
613.66,936.24
613.793,937.08
613.925,936.96
614.058,936.78
614.19,936.06
614.323,935.66
614.456,936.92
614.588,937.26
614.721,936.72
614.853,935.02
614.986,938.28
615.118,935.94
615.251,935.88
615.383,936.04
615.516,934.22
615.648,934.5
615.781,934.72
615.913,933.74
616.046,933.76
616.178,937.2
616.311,933.56
616.443,934.98
616.576,935.96
616.708,935.26
616.841,933.84
616.973,935.36
617.106,934.4
617.238,934.62
617.371,936.5
617.503,934.94
617.636,935.62
617.768,935.6
617.901,935.6
618.033,937.16
618.166,935.64
618.298,936.18
618.43,936.16
618.563,934.78
618.695,935.42
618.828,935.36
618.96,934.1
619.093,934.16
619.225,934.1
619.357,934.18
619.49,936.66
619.622,933.4
619.755,935.66
619.887,933.74
620.019,935.42
620.152,933.16
620.284,933.72
620.417,934.52
620.549,934.58
620.681,933.64
620.814,932.86
620.946,935.06
621.078,934.24
621.211,933.22
621.343,932.9
621.475,935.8
621.608,935.48
621.74,936.74
621.872,935.84
622.005,938.02
622.137,938.18
622.269,939.1
622.402,939.02
622.534,942.22
622.666,937.16
622.799,936.9
622.931,937.82
623.063,935.74
623.195,934.6
623.328,934.88
623.46,934.8
623.592,934.48
623.725,932.96
623.857,932.58
623.989,933.4
624.121,932.76
624.254,931.88
624.386,932.0
624.518,932.88
624.65,932.1
624.783,932.2
624.915,930.96
625.047,931.54
625.179,930.34
625.312,931.74
625.444,931.62
625.576,931.58
625.708,930.9
625.841,934.34
625.973,932.46
626.105,934.52
626.237,934.84
626.369,937.32
626.502,940.08
626.634,946.84
626.766,958.64
626.898,980.12
627.03,1009.28
627.163,1035.06
627.295,1040.36
627.427,1031.26
627.559,1016.64
627.691,1005.7
627.823,996.72
627.956,991.7
628.088,990.66
628.22,997.58
628.352,1014.92
628.484,1058.4
628.616,1082.72
628.748,1044.92
628.881,1011.34
629.013,1000.26
629.145,995.86
629.277,992.26
629.409,985.4
629.541,980.58
629.673,975.58
629.805,971.16
629.937,967.68
630.07,964.12
630.202,963.68
630.334,963.52
630.466,965.68
630.598,959.84
630.73,957.6
630.862,952.36
630.994,949.76
631.126,941.98
631.258,936.74
631.39,934.38
631.522,931.42
631.655,932.42
631.787,929.38
631.919,930.82
632.051,927.76
632.183,928.58
632.315,926.96
632.447,926.44
632.579,925.24
632.711,923.46
632.843,924.22
632.975,923.82
633.107,924.18
633.239,923.22
633.371,925.12
633.503,922.72
633.635,919.7
633.767,921.58
633.899,921.18
634.031,921.62
634.163,921.32
634.295,918.9
634.427,920.62
634.559,921.3
634.691,917.72
634.823,921.86
634.955,920.2
635.087,918.82
635.219,920.38
635.351,919.42
635.483,920.82
635.615,917.98
635.747,918.24
635.879,917.1
636.011,918.36
636.143,918.98
636.275,919.82
636.406,918.06
636.538,919.52
636.67,918.22
636.802,917.44
636.934,919.2
637.066,918.18
637.198,916.4
637.33,917.3
637.462,917.6
637.594,916.56
637.726,918.12
637.858,916.9
637.989,917.22
638.121,915.5
638.253,916.84
638.385,914.54
638.517,916.64
638.649,916.42
638.781,915.88
638.913,916.06
639.045,917.14
639.176,915.5
639.308,913.62
639.44,913.16
639.572,914.88
639.704,914.28
639.836,913.46
639.968,915.02
640.1,914.22
640.231,912.92
640.363,913.88
640.495,913.64
640.627,914.54
640.759,912.52
640.891,912.2
641.022,913.44
641.154,912.36
641.286,912.36
641.418,911.12
641.55,911.46
641.682,913.64
641.813,910.82
641.945,912.78
642.077,911.24
642.209,911.0
642.341,910.46
642.472,911.7
642.604,910.24
642.736,911.06
642.868,910.36
643.0,910.04
643.131,910.6
643.263,909.36
643.395,909.06
643.527,908.56
643.658,909.62
643.79,909.02
643.922,908.12
644.054,908.34
644.186,907.34
644.317,908.72
644.449,908.36
644.581,907.18
644.713,907.48
644.844,906.12
644.976,906.76
645.108,905.94
645.24,905.38
645.371,904.8
645.503,905.72
645.635,905.44
645.767,904.66
645.898,905.88
646.03,905.06
646.162,905.5
646.293,905.42
646.425,903.56
646.557,903.58
646.689,905.74
646.82,905.6
646.952,904.36
647.084,904.44
647.215,904.44
647.347,903.88
647.479,905.02
647.61,904.8
647.742,903.16
647.874,903.92
648.006,903.32
648.137,903.72
648.269,904.78
648.401,902.48
648.532,903.34
648.664,901.9
648.796,902.12
648.927,902.48
649.059,901.32
649.191,901.28
649.322,901.24
649.454,901.44
649.586,900.52
649.717,899.94
649.849,901.22
649.981,901.66
650.112,901.44
650.244,899.66
650.375,901.5
650.507,900.14
650.639,898.94
650.77,900.34
650.902,901.78
651.034,898.66
651.165,899.28
651.297,898.84
651.429,900.08
651.56,898.22
651.692,899.08
651.823,899.3
651.955,897.82
652.087,899.74
652.218,898.64
652.35,898.54
652.481,898.32
652.613,898.72
652.745,898.18
652.876,897.94
653.008,897.8
653.139,898.12
653.271,897.76
653.403,899.12
653.534,895.94
653.666,897.22
653.797,897.68
653.929,896.64
654.061,898.42
654.192,896.94
654.324,896.82
654.455,895.6
654.587,898.26
654.718,895.48
654.85,895.9
654.982,895.38
655.113,894.9
655.245,895.46
655.376,895.92
655.508,895.06
655.639,894.76
655.771,897.2
655.902,894.32
656.034,894.16
656.166,895.54
656.297,895.22
656.429,894.72
656.56,895.0
656.692,895.48
656.823,894.62
656.955,895.24
657.086,894.62
657.218,894.74
657.349,895.26
657.481,895.38
657.612,894.32
657.744,894.0
657.875,894.34
658.007,894.28
658.138,895.02
658.27,894.74
658.401,894.38
658.533,893.64
658.664,893.12
658.796,893.04
658.927,892.68
659.059,893.8
659.19,892.3
659.322,893.18
659.453,894.5
659.585,894.36
659.716,893.26
659.848,892.82
659.979,893.72
660.111,892.5
660.242,893.2
660.374,894.12
660.505,892.66
660.637,891.78
660.768,891.92
660.9,891.28
661.031,891.6
661.163,891.76
661.294,890.56
661.426,890.56
661.557,891.02
661.689,890.78
661.82,891.1
661.951,891.94
662.083,890.2
662.214,890.14
662.346,890.1
662.477,890.38
662.609,889.94
662.74,889.14
662.872,890.44
663.003,888.1
663.135,890.0
