nm,Intensity
526.493,828.7
526.629,829.9
526.766,829.4
526.903,829.15
527.039,829.3
527.176,828.85
527.313,827.9
527.449,829.75
527.586,828.3
527.723,829.3
527.859,828.1
527.996,828.7
528.133,829.1
528.269,829.95
528.406,828.45
528.542,829.35
528.679,829.2
528.816,828.95
528.952,828.45
529.089,829.85
529.225,829.05
529.362,828.2
529.498,829.3
529.635,829.15
529.771,829.6
529.908,829.75
530.044,829.6
530.181,827.65
530.317,829.85
530.454,828.0
530.59,829.0
530.727,828.3
530.863,830.0
531.0,830.0
531.136,829.0
531.273,829.35
531.409,828.55
531.546,828.85
531.682,828.55
531.818,828.5
531.955,831.8
532.091,856.65
532.227,867.7
532.364,838.95
532.5,829.05
532.637,829.0
532.773,829.6
532.909,829.0
533.046,829.0
533.182,828.9
533.318,828.85
533.455,830.1
533.591,829.95
533.727,839.2
533.863,891.85
534.0,975.3
534.136,1013.2
534.272,1017.7
534.408,1001.9
534.545,993.05
534.681,988.7
534.817,978.3
534.953,963.65
535.09,957.15
535.226,951.3
535.362,945.5
535.498,940.5
535.634,935.15
535.771,932.15
535.907,929.05
536.043,928.65
536.179,926.4
536.315,926.6
536.451,925.8
536.588,925.9
536.724,923.4
536.86,921.4
536.996,923.65
537.132,921.7
537.268,921.45
537.404,924.8
537.54,921.35
537.676,925.5
537.812,924.9
537.948,931.2
538.084,932.9
538.22,934.2
538.357,931.95
538.493,932.05
538.629,933.65
538.765,935.15
538.901,937.65
539.037,934.95
539.173,935.75
539.309,936.45
539.444,932.2
539.58,930.65
539.716,923.1
539.852,920.9
539.988,915.85
540.124,915.45
540.26,913.1
540.396,914.35
540.532,913.15
540.668,914.15
540.804,911.45
540.94,913.35
541.076,914.15
541.211,915.75
541.347,913.7
541.483,912.4
541.619,912.65
541.755,914.9
541.891,913.45
542.026,916.6
542.162,918.65
542.298,920.45
542.434,919.2
542.57,924.55
542.705,921.95
542.841,922.9
542.977,920.25
543.113,916.8
543.249,916.95
543.384,916.1
543.52,913.3
543.656,915.75
543.791,915.45
543.927,915.85
544.063,915.65
544.199,917.85
544.334,918.25
544.47,921.5
544.606,922.8
544.741,925.2
544.877,928.1
545.013,932.0
545.148,936.2
545.284,931.5
545.42,934.5
545.555,937.0
545.691,941.5
545.827,942.35
545.962,931.65
546.098,924.4
546.233,922.15
546.369,920.15
546.504,920.2
546.64,918.35
546.776,919.8
546.911,918.95
547.047,920.45
547.182,918.75
547.318,918.7
547.453,922.35
547.589,919.4
547.724,923.95
547.86,921.65
547.995,920.0
548.131,922.3
548.266,924.15
548.402,927.5
548.537,922.9
548.673,927.8
548.808,929.5
548.944,926.1
549.079,932.0
549.214,929.9
549.35,935.8
549.485,937.75
549.621,939.3
549.756,937.55
549.892,944.9
550.027,944.4
550.162,943.25
550.298,944.15
550.433,940.8
550.568,939.45
550.704,936.0
550.839,930.85
550.974,932.3
551.11,929.6
551.245,929.6
551.38,929.4
551.516,925.95
551.651,925.75
551.786,926.0
551.922,926.95
552.057,925.5
552.192,925.25
552.327,926.25
552.463,924.65
552.598,922.15
552.733,922.4
552.868,926.5
553.004,923.35
553.139,923.05
553.274,921.85
553.409,922.85
553.544,925.4
553.68,925.75
553.815,926.75
553.95,926.95
554.085,928.1
554.22,925.9
554.356,927.05
554.491,927.55
554.626,928.85
554.761,930.85
554.896,927.8
555.031,926.4
555.166,925.65
555.301,927.6
555.437,926.2
555.572,927.75
555.707,927.5
555.842,927.75
555.977,928.75
556.112,926.6
556.247,927.3
556.382,924.45
556.517,926.05
556.652,925.35
556.787,924.6
556.922,927.85
557.057,927.55
557.192,925.2
557.327,927.05
557.462,927.6
557.597,928.65
557.732,925.2
557.867,928.4
558.002,929.3
558.137,924.75
558.272,929.8
558.407,927.65
558.542,930.25
558.677,928.1
558.812,928.6
558.947,927.95
559.082,927.05
559.217,930.55
559.351,926.35
559.486,929.9
559.621,928.1
559.756,927.6
559.891,929.0
560.026,932.2
560.161,933.6
560.295,933.85
560.43,933.45
560.565,932.15
560.7,933.65
560.835,936.4
560.97,937.25
561.104,945.8
561.239,958.25
561.374,1027.2
561.509,1303.35
561.644,1396.1
561.778,1095.1
561.913,978.35
562.048,971.65
562.183,969.9
562.317,955.2
562.452,940.25
562.587,938.15
562.722,935.2
562.856,939.1
562.991,946.5
563.126,944.9
563.26,943.45
563.395,940.1
563.53,942.95
563.665,943.3
563.799,943.1
563.934,942.65
564.069,942.7
564.203,945.5
564.338,946.95
564.472,948.45
564.607,951.4
564.742,952.2
564.876,950.15
565.011,948.35
565.146,948.0
565.28,950.05
565.415,947.85
565.549,945.85
565.684,946.95
565.818,948.55
565.953,944.35
566.088,946.65
566.222,948.15
566.357,950.0
566.491,951.65
566.626,956.6
566.76,958.55
566.895,959.4
567.029,953.5
567.164,951.25
567.298,951.5
567.433,949.15
567.567,946.35
567.702,947.95
567.836,944.45
567.971,949.2
568.105,948.15
568.24,950.6
568.374,947.15
568.509,948.7
568.643,949.65
568.777,948.05
568.912,945.9
569.046,946.35
569.181,946.15
569.315,947.95
569.449,949.95
569.584,947.1
569.718,947.8
569.853,946.4
569.987,947.2
570.121,949.25
570.256,949.4
570.39,945.1
570.524,947.6
570.659,948.75
570.793,944.2
570.927,944.85
571.062,945.45
571.196,947.85
571.33,948.35
571.465,949.4
571.599,947.75
571.733,949.95
571.867,951.25
572.002,950.9
572.136,947.6
572.27,948.95
572.404,951.1
572.539,948.65
572.673,951.25
572.807,953.7
572.941,949.2
573.076,951.85
573.21,955.9
573.344,953.15
573.478,954.4
573.612,953.95
573.747,952.2
573.881,952.9
574.015,954.85
574.149,951.4
574.283,953.3
574.417,954.95
574.552,954.8
574.686,953.95
574.82,956.35
574.954,955.5
575.088,952.1
575.222,955.35
575.356,954.8
575.491,956.3
575.625,957.4
575.759,955.15
575.893,954.05
576.027,954.6
576.161,955.7
576.295,958.1
576.429,958.7
576.563,957.95
576.697,957.2
576.831,958.1
576.965,957.2
577.099,957.45
577.233,958.85
577.367,959.05
577.501,959.9
577.635,956.6
577.769,959.5
577.903,960.05
578.037,957.15
578.171,959.55
578.305,959.35
578.439,960.55
578.573,957.65
578.707,961.95
578.841,962.2
578.975,958.05
579.109,960.3
579.243,959.8
579.377,964.55
579.511,959.95
579.645,960.5
579.779,961.75
579.913,964.15
580.046,962.65
580.18,963.05
580.314,959.6
580.448,960.8
580.582,964.85
580.716,962.8
580.85,966.6
580.984,965.45
581.117,965.35
581.251,967.7
581.385,966.05
581.519,966.25
581.653,971.0
581.787,971.3
581.92,970.85
582.054,970.15
582.188,967.65
582.322,967.15
582.456,966.5
582.589,969.35
582.723,969.25
582.857,969.9
582.991,968.85
583.124,972.55
583.258,970.7
583.392,972.3
583.526,969.45
583.659,972.25
583.793,968.85
583.927,970.0
584.061,971.4
584.194,967.65
584.328,969.65
584.462,968.85
584.595,970.05
584.729,966.65
584.863,970.0
584.997,966.75
585.13,972.05
585.264,971.15
585.398,971.1
585.531,968.9
585.665,971.55
585.798,973.75
585.932,969.85
586.066,971.4
586.199,967.45
586.333,970.25
586.467,973.4
586.6,972.65
586.734,974.55
586.867,973.45
587.001,971.05
587.135,972.15
587.268,971.05
587.402,972.6
587.535,973.05
587.669,972.7
587.802,970.7
587.936,971.5
588.07,970.75
588.203,972.35
588.337,972.4
588.47,970.75
588.604,972.0
588.737,972.75
588.871,968.75
589.004,971.8
589.138,973.9
589.271,972.0
589.405,971.85
589.538,972.45
589.672,971.95
589.805,970.2
589.939,973.45
590.072,973.5
590.206,975.7
590.339,974.7
590.472,973.25
590.606,971.85
590.739,976.3
590.873,975.5
591.006,974.4
591.14,973.6
591.273,974.15
591.406,976.25
591.54,976.1
591.673,975.45
591.807,976.95
591.94,975.95
592.073,975.75
592.207,975.65
592.34,976.3
592.473,973.15
592.607,976.4
592.74,975.55
592.873,977.25
593.007,976.3
593.14,977.55
593.273,973.45
593.407,977.0
593.54,974.4
593.673,975.55
593.807,975.75
593.94,977.4
594.073,974.75
594.207,975.65
594.34,978.85
594.473,979.4
594.606,981.15
594.74,979.55
594.873,978.9
595.006,977.1
595.14,980.65
595.273,978.2
595.406,980.4
595.539,983.3
595.673,982.8
595.806,981.55
595.939,981.35
596.072,979.05
596.205,980.75
596.339,982.45
596.472,981.35
596.605,982.8
596.738,982.25
596.871,981.85
597.005,986.45
597.138,985.15
597.271,983.75
597.404,986.85
597.537,985.35
597.67,985.35
597.804,987.7
597.937,982.55
598.07,986.4
598.203,988.2
598.336,985.8
598.469,989.0
598.602,987.5
598.735,987.65
598.869,989.3
599.002,986.8
599.135,989.85
599.268,989.6
599.401,988.6
599.534,986.8
599.667,990.1
599.8,987.8
599.933,991.45
600.066,992.0
600.199,989.65
600.332,987.6
600.465,988.0
600.598,986.6
600.731,988.7
600.865,989.7
600.998,992.05
601.131,993.05
601.264,990.3
601.397,989.4
601.53,990.0
601.663,992.95
601.796,990.75
601.929,987.7
602.062,988.7
602.195,992.85
602.328,993.5
602.46,992.35
602.593,991.65
602.726,991.45
602.859,990.35
602.992,992.3
603.125,994.25
603.258,992.95
603.391,993.65
603.524,993.9
603.657,994.75
603.79,992.6
603.923,994.7
604.056,994.65
604.189,997.3
604.322,997.55
604.454,996.75
604.587,993.3
604.72,997.65
604.853,992.6
604.986,992.25
605.119,992.75
605.252,990.75
605.385,992.85
605.517,989.6
605.65,992.25
605.783,990.95
605.916,991.5
606.049,990.1
606.182,993.0
606.315,991.1
606.447,990.9
606.58,988.35
606.713,994.45
606.846,993.8
606.979,989.05
607.111,992.6
607.244,991.85
607.377,994.0
607.51,994.45
607.643,990.9
607.775,991.8
607.908,995.05
608.041,994.1
608.174,994.65
608.306,992.85
608.439,996.35
608.572,995.5
608.705,995.1
608.837,993.5
608.97,995.1
609.103,998.0
609.236,994.1
609.368,997.85
609.501,997.0
609.634,996.95
609.766,995.6
609.899,998.2
610.032,995.95
610.164,994.95
610.297,998.9
610.43,994.15
610.563,999.45
610.695,996.85
610.828,994.7
610.961,995.5
611.093,996.25
611.226,997.0
611.359,997.05
611.491,1002.15
611.624,995.45
611.756,998.1
611.889,994.8
612.022,994.8
612.154,1000.1
612.287,1001.1
612.42,998.55
612.552,1001.0
612.685,1001.5
612.817,1001.65
612.95,1000.3
613.083,1002.5
613.215,1001.45
613.348,1006.95
613.48,1003.65
613.613,1002.85
613.745,998.75
613.878,1004.6
614.011,1002.05
614.143,1004.9
614.276,1003.75
614.408,1004.35
614.541,1003.9
614.673,1007.2
614.806,1003.55
614.938,1003.35
615.071,1003.45
615.203,1005.15
615.336,1001.25
615.469,1002.95
615.601,1004.55
615.734,1002.45
615.866,1005.05
615.999,1000.5
616.131,1003.5
616.263,1000.45
616.396,1004.7
616.528,1002.25
616.661,1003.95
616.793,1002.35
616.926,1006.25
617.058,1002.45
617.191,1001.0
617.323,1009.55
617.456,1005.6
617.588,1005.55
617.721,1004.4
617.853,1005.05
617.985,1008.6
618.118,1002.2
618.25,1009.65
618.383,1006.1
618.515,1008.5
618.648,1005.6
618.78,1001.9
618.912,1005.7
619.045,1007.2
619.177,1006.6
619.31,1006.85
619.442,1005.5
619.574,1005.75
619.707,1000.7
619.839,1004.7
619.971,1005.25
620.104,1005.3
620.236,1005.3
620.369,1005.0
620.501,1004.1
620.633,1006.65
620.766,1005.65
620.898,1001.95
621.03,1006.95
621.163,1004.95
621.295,1004.4
621.427,1001.95
621.56,1004.5
621.692,1006.7
621.824,1009.05
621.957,1008.1
622.089,1004.3
622.221,1004.9
622.353,1006.2
622.486,1004.55
622.618,1007.5
622.75,1005.9
622.883,1007.0
623.015,1005.3
623.147,1009.75
623.279,1004.4
623.412,1003.1
623.544,1007.05
623.676,1006.95
623.808,1007.25
623.941,1009.9
624.073,1013.25
624.205,1007.3
624.337,1008.65
624.47,1011.25
624.602,1007.4
624.734,1007.55
624.866,1008.15
624.999,1008.95
625.131,1009.75
625.263,1008.1
625.395,1007.7
625.527,1011.5
625.66,1006.3
625.792,1011.1
625.924,1006.55
626.056,1008.75
626.188,1007.5
626.321,1008.7
626.453,1007.1
626.585,1009.9
626.717,1009.25
626.849,1006.85
626.981,1007.3
627.114,1009.0
627.246,1010.5
627.378,1014.45
627.51,1012.0
627.642,1013.4
627.774,1011.7
627.906,1012.05
628.039,1013.65
628.171,1010.45
628.303,1010.35
628.435,1010.1
628.567,1010.95
628.699,1009.55
628.831,1013.2
628.963,1009.9
629.095,1013.3
629.228,1011.75
629.36,1016.25
629.492,1015.05
629.624,1012.45
629.756,1016.25
629.888,1015.75
630.02,1012.4
630.152,1015.5
630.284,1011.95
630.416,1010.85
630.548,1011.05
630.68,1016.55
630.813,1015.1
630.945,1014.75
631.077,1011.25
631.209,1012.2
631.341,1014.1
631.473,1006.75
631.605,1007.65
631.737,1009.35
631.869,1008.9
632.001,1011.45
632.133,1009.65
632.265,1010.2
632.397,1010.3
632.529,1009.6
632.661,1007.35
632.793,1013.65
632.925,1005.1
633.057,1011.25
633.189,1004.9
633.321,1009.25
633.453,1011.9
633.585,1007.1
633.717,1008.4
633.849,1009.15
633.981,1007.15
634.113,1003.8
634.245,1009.4
634.377,1007.25
634.509,1012.75
634.641,1013.15
634.773,1015.65
634.905,1009.95
635.036,1018.6
635.168,1019.0
635.3,1025.2
635.432,1026.0
635.564,1026.1
635.696,1024.7
635.828,1021.85
635.96,1020.65
636.092,1015.65
636.224,1013.25
636.356,1013.05
636.488,1015.2
636.62,1012.3
636.751,1012.25
636.883,1014.9
637.015,1009.05
637.147,1010.75
637.279,1009.6
637.411,1006.7
637.543,1010.05
637.675,1009.9
637.807,1010.3
637.938,1012.8
638.07,1009.65
638.202,1012.0
638.334,1010.3
638.466,1012.05
638.598,1013.95
638.73,1012.6
638.862,1013.1
638.993,1014.8
639.125,1010.65
639.257,1011.65
639.389,1014.55
639.521,1018.15
639.653,1018.05
639.784,1017.55
639.916,1017.65
640.048,1018.05
640.18,1018.8
640.312,1017.75
640.443,1024.05
640.575,1020.55
640.707,1019.2
640.839,1019.3
640.971,1021.45
641.103,1025.45
641.234,1020.55
641.366,1025.95
641.498,1026.25
641.63,1022.5
641.761,1024.3
641.893,1027.55
642.025,1027.0
642.157,1026.1
642.289,1025.55
642.42,1030.35
642.552,1029.95
642.684,1029.35
642.816,1032.15
642.947,1032.75
643.079,1033.35
643.211,1029.45
643.343,1035.75
643.474,1031.7
643.606,1029.1
643.738,1028.35
643.87,1037.7
644.001,1027.75
644.133,1031.4
644.265,1035.95
644.397,1030.5
644.528,1033.4
644.66,1030.45
644.792,1031.5
644.923,1033.15
645.055,1036.05
645.187,1030.45
645.319,1035.2
645.45,1030.55
645.582,1030.2
645.714,1034.35
645.845,1035.05
645.977,1036.9
646.109,1035.5
646.24,1033.45
646.372,1037.45
646.504,1037.6
646.635,1037.8
646.767,1037.15
646.899,1043.65
647.03,1042.3
647.162,1042.75
647.294,1042.35
647.425,1042.6
647.557,1047.25
647.689,1046.5
647.82,1041.1
647.952,1051.1
648.084,1048.65
648.215,1049.65
648.347,1047.85
648.479,1046.25
648.61,1052.35
648.742,1055.25
648.874,1053.25
649.005,1049.65
649.137,1055.5
649.268,1053.85
649.4,1058.75
649.532,1057.3
649.663,1056.65
649.795,1056.55
649.927,1057.85
650.058,1059.45
650.19,1063.4
650.321,1060.75
650.453,1059.15
650.585,1061.8
650.716,1058.85
650.848,1059.75
650.979,1060.25
651.111,1059.6
651.243,1061.05
651.374,1061.6
651.506,1052.7
651.637,1052.1
651.769,1056.35
651.9,1053.3
652.032,1051.15
652.164,1052.15
652.295,1048.1
652.427,1046.1
652.558,1040.85
652.69,1044.1
652.821,1040.85
652.953,1036.25
653.084,1037.8
653.216,1032.75
653.348,1034.5
653.479,1030.2
653.611,1030.0
653.742,1030.3
653.874,1026.65
654.005,1025.0
654.137,1024.9
654.268,1023.1
654.4,1017.9
654.531,1018.05
654.663,1016.75
654.794,1014.3
654.926,1015.6
655.057,1017.55
655.189,1012.8
655.32,1012.15
655.452,1008.5
655.583,1008.2
655.715,1008.75
655.846,1008.0
655.978,1006.25
656.109,1005.6
656.241,1001.15
656.372,1005.3
656.504,1007.35
656.635,999.1
656.767,999.9
656.898,999.9
657.03,1000.1
657.161,996.75
657.293,997.45
657.424,995.7
657.556,993.55
657.687,992.85
657.819,993.5
657.95,992.8
658.082,987.75
658.213,988.55
658.345,991.9
658.476,989.35
658.607,988.9
658.739,987.35
658.87,988.2
659.002,983.4
659.133,981.95
659.265,985.15
659.396,985.4
659.528,984.8
659.659,980.25
659.79,983.0
659.922,983.2
660.053,978.3
660.185,975.85
660.316,980.45
660.448,975.65
660.579,976.8
660.71,975.5
660.842,975.0
660.973,975.65
661.105,971.75
661.236,977.9
661.367,974.25
661.499,971.7
661.63,974.25
661.762,973.3
661.893,974.45
662.024,972.2
662.156,971.45
662.287,968.3
662.419,970.55
662.55,968.65
662.681,971.9
662.813,969.0
662.944,969.85
663.076,969.35
