nm,Intensity
526.532,834.2
526.669,832.9
526.805,833.45
526.942,832.55
527.079,834.35
527.216,833.55
527.352,833.85
527.489,832.85
527.625,833.8
527.762,832.4
527.899,834.4
528.035,833.9
528.172,833.2
528.309,833.2
528.445,834.25
528.582,833.55
528.718,833.85
528.855,832.9
528.992,834.0
529.128,833.6
529.265,833.85
529.401,832.7
529.538,833.9
529.674,833.35
529.811,833.4
529.947,832.55
530.084,833.8
530.22,832.95
530.357,833.9
530.493,833.75
530.63,833.0
530.766,833.6
530.903,832.8
531.039,835.4
531.176,833.0
531.312,833.65
531.449,833.9
531.585,833.55
531.721,833.5
531.858,832.85
531.994,842.1
532.131,876.4
532.267,868.5
532.403,840.05
532.54,834.35
532.676,833.35
532.812,834.15
532.949,833.15
533.085,834.5
533.221,833.75
533.358,833.45
533.494,835.05
533.63,850.1
533.767,971.65
533.903,1430.15
534.039,1961.95
534.176,2146.15
534.312,2100.5
534.448,1992.1
534.584,1902.75
534.721,1806.2
534.857,1695.1
534.993,1568.9
535.129,1457.0
535.266,1362.75
535.402,1277.2
535.538,1215.8
535.674,1155.85
535.81,1110.8
535.947,1072.55
536.083,1047.45
536.219,1026.35
536.355,1010.55
536.491,999.4
536.627,992.65
536.764,987.4
536.9,983.65
537.036,980.8
537.172,971.55
537.308,966.65
537.444,962.85
537.58,958.95
537.716,955.95
537.852,959.2
537.988,964.3
538.125,968.5
538.261,975.9
538.397,977.1
538.533,984.0
538.669,979.25
538.805,963.45
538.941,947.3
539.077,926.95
539.213,910.05
539.349,900.05
539.485,898.2
539.621,897.45
539.757,894.45
539.893,893.8
540.029,892.4
540.165,890.1
540.301,887.3
540.437,888.2
540.572,883.75
540.708,882.75
540.844,884.05
540.98,880.7
541.116,881.9
541.252,881.0
541.388,882.15
541.524,881.25
541.66,881.9
541.795,881.85
541.931,881.25
542.067,879.7
542.203,879.1
542.339,878.55
542.475,876.9
542.611,878.6
542.746,879.95
542.882,878.75
543.018,881.8
543.154,883.1
543.289,882.2
543.425,884.75
543.561,885.9
543.697,891.6
543.833,892.15
543.968,892.1
544.104,890.55
544.24,889.05
544.375,885.05
544.511,880.9
544.647,877.9
544.783,878.35
544.918,877.45
545.054,878.45
545.19,875.45
545.325,874.2
545.461,875.0
545.597,871.9
545.732,870.65
545.868,869.35
546.004,871.05
546.139,872.1
546.275,870.1
546.41,870.75
546.546,870.8
546.682,869.2
546.817,869.4
546.953,869.05
547.088,869.5
547.224,870.45
547.36,872.0
547.495,875.5
547.631,872.7
547.766,872.9
547.902,875.55
548.037,878.15
548.173,875.55
548.308,873.25
548.444,874.15
548.579,874.0
548.715,873.6
548.85,871.1
548.986,869.8
549.121,870.2
549.257,868.3
549.392,870.2
549.528,869.2
549.663,868.9
549.798,871.05
549.934,868.65
550.069,874.95
550.205,899.7
550.34,947.3
550.475,924.05
550.611,883.4
550.746,872.8
550.882,868.95
551.017,866.85
551.152,864.3
551.288,864.65
551.423,865.75
551.558,863.85
551.694,863.5
551.829,863.5
551.964,863.35
552.1,863.5
552.235,861.5
552.37,862.85
552.505,864.55
552.641,864.85
552.776,868.6
552.911,866.45
553.047,864.6
553.182,865.55
553.317,861.95
553.452,862.45
553.588,865.6
553.723,868.8
553.858,875.4
553.993,879.55
554.128,884.45
554.264,890.4
554.399,895.55
554.534,897.0
554.669,897.85
554.804,897.85
554.939,891.55
555.075,888.85
555.21,890.75
555.345,897.35
555.48,913.4
555.615,926.35
555.75,931.15
555.885,921.85
556.02,898.85
556.155,888.95
556.291,882.3
556.426,875.7
556.561,872.05
556.696,870.85
556.831,873.1
556.966,879.4
557.101,883.45
557.236,884.35
557.371,879.55
557.506,874.5
557.641,875.2
557.776,873.5
557.911,873.25
558.046,873.65
558.181,871.75
558.316,871.4
558.451,870.9
558.586,871.45
558.721,873.75
558.856,876.4
558.991,881.1
559.126,881.5
559.261,881.25
559.396,874.5
559.531,872.15
559.665,869.2
559.8,868.4
559.935,868.25
560.07,868.5
560.205,870.4
560.34,870.95
560.475,871.95
560.61,869.95
560.745,869.75
560.879,872.5
561.014,874.8
561.149,876.5
561.284,877.05
561.419,883.7
561.553,894.65
561.688,917.5
561.823,957.4
561.958,1099.65
562.093,1483.1
562.227,1463.05
562.362,1076.75
562.497,922.35
562.632,896.25
562.767,907.8
562.901,960.4
563.036,1044.55
563.171,1044.6
563.305,976.55
563.44,921.65
563.575,903.4
563.71,892.85
563.844,890.4
563.979,892.3
564.114,892.7
564.248,895.5
564.383,897.05
564.518,896.25
564.652,892.15
564.787,893.95
564.922,892.85
565.056,892.5
565.191,890.95
565.325,887.4
565.46,884.95
565.595,879.65
565.729,877.05
565.864,874.15
565.999,872.75
566.133,870.5
566.268,870.2
566.402,871.5
566.537,875.4
566.671,883.6
566.806,894.7
566.94,923.7
567.075,940.8
567.21,923.7
567.344,906.4
567.479,900.35
567.613,905.3
567.748,937.1
567.882,966.7
568.017,969.75
568.151,963.85
568.285,975.55
568.42,983.75
568.554,984.2
568.689,961.2
568.823,935.85
568.958,914.3
569.092,905.95
569.227,898.1
569.361,895.95
569.495,890.45
569.63,884.6
569.764,886.4
569.899,888.4
570.033,884.8
570.167,883.7
570.302,884.4
570.436,882.55
570.571,882.75
570.705,881.75
570.839,881.3
570.974,881.75
571.108,884.15
571.242,884.7
571.377,884.35
571.511,887.8
571.645,891.15
571.78,892.15
571.914,896.05
572.048,894.8
572.182,897.6
572.317,901.8
572.451,906.95
572.585,910.05
572.719,913.45
572.854,908.95
572.988,904.3
573.122,895.65
573.256,892.8
573.391,892.35
573.525,890.9
573.659,892.25
573.793,892.05
573.927,892.45
574.062,891.6
574.196,891.4
574.33,884.85
574.464,882.95
574.598,879.65
574.733,879.5
574.867,879.2
575.001,878.55
575.135,878.7
575.269,877.9
575.403,878.2
575.537,876.15
575.671,876.75
575.806,876.45
575.94,881.35
576.074,883.8
576.208,890.3
576.342,900.35
576.476,909.45
576.61,920.05
576.744,923.15
576.878,910.2
577.012,891.1
577.146,885.15
577.28,880.4
577.414,880.15
577.548,880.1
577.682,875.4
577.817,877.05
577.951,879.2
578.085,879.55
578.219,882.4
578.353,878.25
578.486,877.2
578.62,878.25
578.754,878.65
578.888,878.85
579.022,877.95
579.156,878.5
579.29,880.8
579.424,878.95
579.558,880.55
579.692,879.3
579.826,878.65
579.96,879.45
580.094,879.9
580.228,878.1
580.362,880.15
580.496,885.5
580.629,884.25
580.763,886.6
580.897,894.5
581.031,921.45
581.165,945.35
581.299,931.1
581.433,918.85
581.566,947.0
581.7,1016.7
581.834,1061.2
581.968,1002.0
582.102,931.65
582.236,902.9
582.369,889.65
582.503,887.95
582.637,883.85
582.771,882.7
582.905,881.25
583.038,881.45
583.172,880.9
583.306,880.5
583.44,880.4
583.573,878.3
583.707,881.1
583.841,878.9
583.975,878.8
584.108,877.6
584.242,879.7
584.376,879.55
584.509,879.55
584.643,877.85
584.777,878.6
584.911,878.95
585.044,877.95
585.178,878.6
585.312,878.5
585.445,877.2
585.579,878.5
585.713,879.25
585.846,877.1
585.98,876.95
586.113,876.4
586.247,877.25
586.381,879.75
586.514,878.2
586.648,878.65
586.782,877.05
586.915,877.05
587.049,875.7
587.182,879.55
587.316,877.35
587.45,877.85
587.583,879.5
587.717,876.65
587.85,878.05
587.984,875.3
588.117,875.5
588.251,877.35
588.384,879.35
588.518,877.6
588.651,877.75
588.785,879.65
588.919,877.6
589.052,876.1
589.186,876.15
589.319,876.0
589.453,877.1
589.586,877.35
589.72,875.9
589.853,876.35
589.986,874.9
590.12,875.55
590.253,876.5
590.387,876.25
590.52,875.65
590.654,875.05
590.787,876.9
590.921,879.0
591.054,876.6
591.187,876.0
591.321,876.25
591.454,876.75
591.588,874.55
591.721,875.0
591.854,876.65
591.988,877.2
592.121,875.2
592.255,876.55
592.388,876.0
592.521,877.85
592.655,876.55
592.788,877.8
592.921,876.9
593.055,877.3
593.188,876.3
593.321,878.35
593.455,876.35
593.588,875.25
593.721,877.05
593.855,877.85
593.988,876.55
594.121,875.2
594.255,877.3
594.388,876.1
594.521,878.05
594.654,876.55
594.788,877.45
594.921,878.1
595.054,876.85
595.187,877.5
595.321,876.25
595.454,878.7
595.587,875.75
595.72,877.25
595.854,877.6
595.987,878.05
596.12,876.15
596.253,877.7
596.387,877.2
596.52,877.55
596.653,876.75
596.786,878.3
596.919,876.3
597.052,878.45
597.186,877.95
597.319,877.2
597.452,877.9
597.585,879.2
597.718,877.9
597.851,878.4
597.985,878.15
598.118,877.9
598.251,877.9
598.384,878.5
598.517,878.55
598.65,880.45
598.783,877.65
598.916,877.55
599.049,879.85
599.183,878.4
599.316,880.8
599.449,880.65
599.582,878.6
599.715,880.2
599.848,878.8
599.981,880.05
600.114,879.95
600.247,880.25
600.38,880.85
600.513,878.9
600.646,880.2
600.779,880.6
600.912,880.45
601.045,880.75
601.178,879.7
601.311,879.7
601.444,878.3
601.577,879.4
601.71,881.4
601.843,878.4
601.976,881.8
602.109,882.15
602.242,882.15
602.375,881.05
602.508,882.6
602.641,881.5
602.774,882.35
602.907,883.65
603.04,883.8
603.173,883.65
603.306,882.95
603.439,882.0
603.572,883.35
603.705,882.05
603.838,882.4
603.971,881.35
604.103,884.25
604.236,882.8
604.369,885.6
604.502,884.1
604.635,885.35
604.768,883.5
604.901,884.8
605.034,883.35
605.167,883.35
605.299,883.7
605.432,885.6
605.565,886.15
605.698,884.25
605.831,883.25
605.964,885.9
606.096,884.75
606.229,886.0
606.362,885.9
606.495,885.3
606.628,886.35
606.761,884.6
606.893,885.75
607.026,886.6
607.159,886.15
607.292,885.45
607.425,886.4
607.557,888.25
607.69,886.0
607.823,888.55
607.956,886.6
608.088,886.7
608.221,888.75
608.354,890.75
608.487,888.1
608.619,889.9
608.752,889.65
608.885,888.75
609.018,889.4
609.15,889.35
609.283,887.6
609.416,890.4
609.548,889.2
609.681,888.6
609.814,890.15
609.947,891.65
610.079,891.8
610.212,889.85
610.345,891.5
610.477,892.2
610.61,892.5
610.743,893.7
610.875,892.15
611.008,893.05
611.141,892.25
611.273,892.35
611.406,893.15
611.539,894.95
611.671,896.4
611.804,896.4
611.936,895.0
612.069,897.35
612.202,893.7
612.334,897.1
612.467,897.1
612.6,896.5
612.732,896.65
612.865,899.35
612.997,898.15
613.13,898.2
613.263,897.9
613.395,898.25
613.528,897.95
613.66,902.6
613.793,900.7
613.925,900.05
614.058,900.3
614.19,899.95
614.323,901.25
614.456,899.25
614.588,902.1
614.721,899.0
614.853,901.9
614.986,900.7
615.118,901.6
615.251,902.45
615.383,900.6
615.516,903.0
615.648,899.6
615.781,904.45
615.913,901.0
616.046,901.9
616.178,905.15
616.311,906.35
616.443,903.5
616.576,903.5
616.708,905.95
616.841,907.0
616.973,908.4
617.106,907.75
617.238,909.5
617.37,908.6
617.503,908.3
617.635,909.9
617.768,910.25
617.9,910.1
618.033,913.85
618.165,909.8
618.297,911.2
618.43,909.75
618.562,910.7
618.695,911.85
618.827,909.05
618.96,909.9
619.092,910.15
619.224,909.65
619.357,911.55
619.489,910.55
619.621,907.75
619.754,911.45
619.886,910.95
620.019,910.25
620.151,909.4
620.283,911.05
620.416,912.05
620.548,911.55
620.68,910.15
620.813,913.05
620.945,912.85
621.077,911.3
621.21,911.95
621.342,910.65
621.474,913.6
621.607,911.7
621.739,912.15
621.871,913.65
622.004,913.75
622.136,912.85
622.268,912.95
622.401,915.75
622.533,914.3
622.665,911.45
622.797,913.3
622.93,914.0
623.062,914.45
623.194,916.45
623.326,917.2
623.459,915.9
623.591,915.05
623.723,914.1
623.856,915.0
623.988,913.25
624.12,913.85
624.252,917.3
624.384,919.2
624.517,919.55
624.649,918.35
624.781,917.0
624.913,918.75
625.046,917.15
625.178,919.9
625.31,917.4
625.442,916.55
625.574,920.05
625.707,919.85
625.839,918.6
625.971,918.65
626.103,919.75
626.235,918.6
626.368,921.55
626.5,924.25
626.632,927.2
626.764,933.55
626.896,941.75
627.028,955.1
627.161,973.55
627.293,991.15
627.425,997.55
627.557,993.7
627.689,987.85
627.821,977.75
627.953,971.25
628.086,968.15
628.218,965.95
628.35,972.0
628.482,977.7
628.614,990.65
628.746,1003.1
628.878,1016.6
629.01,1030.3
629.143,1049.55
629.275,1061.0
629.407,1070.35
629.539,1068.9
629.671,1068.05
629.803,1063.55
629.935,1054.95
630.067,1044.3
630.199,1037.5
630.331,1029.5
630.463,1019.1
630.596,1009.05
630.728,1003.25
630.86,994.65
630.992,984.2
631.124,976.6
631.256,965.4
631.388,959.55
631.52,955.95
631.652,953.75
631.784,951.8
631.916,950.95
632.048,951.15
632.18,957.7
632.312,967.45
632.444,972.0
632.576,961.65
632.708,951.25
632.84,943.15
632.972,941.85
633.104,951.0
633.236,963.85
633.368,973.25
633.5,969.65
633.632,957.05
633.764,949.45
633.896,948.95
634.028,955.45
634.16,972.4
634.292,991.25
634.424,1019.0
634.556,1048.6
634.688,1074.75
634.82,1095.05
634.952,1106.8
635.084,1127.7
635.216,1203.8
635.348,1291.9
635.48,1325.15
635.612,1313.1
635.744,1294.95
635.876,1252.2
636.007,1183.85
636.139,1114.35
636.271,1061.5
636.403,1021.65
636.535,1000.15
636.667,984.6
636.799,971.15
636.931,964.9
637.063,955.5
637.195,950.0
637.327,948.7
637.459,947.8
637.59,944.7
637.722,942.8
637.854,939.65
637.986,934.85
638.118,936.65
638.25,932.4
638.382,933.45
638.514,934.65
638.645,934.25
638.777,932.45
638.909,934.25
639.041,930.05
639.173,931.5
639.305,934.7
639.437,935.55
639.568,936.8
639.7,935.55
639.832,945.0
639.964,942.8
640.096,944.15
640.228,935.9
640.36,932.5
640.491,933.15
640.623,931.5
640.755,931.4
640.887,932.0
641.019,935.9
641.15,937.15
641.282,940.1
641.414,939.4
641.546,942.6
641.678,939.65
641.81,937.4
641.941,938.0
642.073,930.55
642.205,932.85
642.337,929.9
642.468,930.25
642.6,931.1
642.732,928.05
642.864,929.0
642.996,930.45
643.127,926.75
643.259,930.2
643.391,928.8
643.523,927.6
643.654,929.45
643.786,931.15
643.918,929.1
644.05,931.15
644.181,927.3
644.313,926.35
644.445,930.0
644.577,930.1
644.708,930.4
644.84,927.7
644.972,928.25
645.104,929.9
645.235,931.5
645.367,929.25
645.499,929.0
645.631,929.05
645.762,928.95
645.894,930.85
646.026,928.25
646.157,930.4
646.289,928.25
646.421,928.5
646.553,929.3
646.684,928.85
646.816,932.3
646.948,933.0
647.079,928.9
647.211,930.3
647.343,931.15
647.474,930.25
647.606,931.9
647.738,932.9
647.869,932.55
648.001,933.4
648.133,929.95
648.265,931.6
648.396,930.0
648.528,930.5
648.66,928.95
648.791,933.0
648.923,930.85
649.054,930.8
649.186,932.1
649.318,932.25
649.449,928.4
649.581,931.8
649.713,930.65
649.844,930.05
649.976,929.25
650.108,930.25
650.239,932.65
650.371,935.05
650.503,931.45
650.634,932.2
650.766,929.9
650.897,931.3
651.029,930.0
651.161,933.2
651.292,933.8
651.424,931.2
651.556,931.6
651.687,932.2
651.819,932.2
651.95,933.35
652.082,930.95
652.214,935.2
652.345,932.6
652.477,934.5
652.608,933.15
652.74,934.35
652.872,933.75
653.003,936.15
653.135,931.55
653.266,934.65
653.398,935.45
653.529,934.8
653.661,936.9
653.793,934.0
653.924,935.9
654.056,934.3
654.187,938.5
654.319,936.75
654.45,935.5
654.582,935.85
654.714,933.05
654.845,934.35
654.977,933.75
655.108,933.85
655.24,934.15
655.371,934.0
655.503,935.4
655.634,936.95
655.766,935.0
655.897,933.25
656.029,936.95
656.161,934.5
656.292,937.4
656.424,935.35
656.555,934.2
656.687,936.65
656.818,936.7
656.95,934.85
657.081,938.5
657.213,935.5
657.344,936.45
657.476,938.95
657.607,937.7
657.739,935.2
657.87,936.5
658.002,938.6
658.133,936.2
658.265,939.15
658.396,935.5
658.528,936.15
658.659,938.1
658.791,937.9
658.922,936.3
659.054,942.7
659.185,937.2
659.317,938.15
659.448,937.85
659.58,941.0
659.711,937.6
659.843,937.05
659.974,940.65
660.106,940.2
660.237,939.25
660.368,942.25
660.5,939.4
660.631,937.4
660.763,938.8
660.894,942.1
661.026,940.8
661.157,935.25
661.289,940.9
661.42,936.1
661.552,935.85
661.683,940.8
661.815,937.55
661.946,940.15
662.077,936.9
662.209,937.45
662.34,940.5
662.472,935.35
662.603,938.05
662.735,942.4
662.866,938.65
662.997,940.85
663.129,940.9
