nm,Intensity
526.553,835.08
526.69,835.1
526.827,835.28
526.963,834.76
527.1,834.86
527.237,835.08
527.373,834.96
527.51,835.12
527.647,834.82
527.784,834.8
527.92,835.66
528.057,835.36
528.194,835.48
528.33,834.36
528.467,835.02
528.603,834.98
528.74,835.0
528.877,835.38
529.013,835.4
529.15,835.9
529.286,834.56
529.423,834.84
529.56,835.12
529.696,835.52
529.833,835.02
529.969,835.3
530.106,835.4
530.242,835.18
530.379,834.66
530.515,834.86
530.652,835.56
530.788,835.34
530.925,835.2
531.061,834.94
531.198,835.36
531.334,834.62
531.47,834.62
531.607,835.8
531.743,834.92
531.88,835.94
532.016,841.74
532.152,863.52
532.289,854.56
532.425,837.62
532.562,835.44
532.698,835.2
532.834,834.76
532.971,835.18
533.107,835.02
533.243,835.58
533.38,834.74
533.516,835.42
533.652,839.58
533.789,870.66
533.925,969.14
534.061,1059.44
534.197,1078.7
534.334,1069.14
534.47,1060.9
534.606,1060.18
534.742,1065.44
534.879,1070.7
535.015,1067.96
535.151,1065.58
535.287,1061.96
535.423,1050.22
535.56,1042.76
535.696,1037.58
535.832,1037.92
535.968,1042.54
536.104,1062.72
536.24,1100.04
536.376,1096.18
536.513,1063.1
536.649,1039.32
536.785,1031.56
536.921,1030.32
537.057,1030.74
537.193,1032.76
537.329,1035.78
537.465,1037.3
537.601,1036.12
537.737,1041.82
537.873,1047.92
538.009,1055.28
538.145,1062.3
538.281,1066.94
538.417,1074.3
538.553,1082.76
538.689,1089.52
538.825,1092.44
538.961,1094.4
539.097,1098.36
539.233,1101.72
539.369,1096.36
539.505,1087.02
539.641,1079.32
539.777,1066.88
539.913,1059.84
540.049,1051.52
540.185,1045.32
540.321,1038.82
540.457,1030.96
540.592,1023.5
540.728,1017.84
540.864,1014.88
541.0,1018.72
541.136,1019.22
541.272,1024.9
541.408,1030.56
541.543,1030.98
541.679,1028.88
541.815,1029.26
541.951,1029.9
542.087,1030.82
542.222,1032.22
542.358,1034.38
542.494,1034.34
542.63,1033.3
542.765,1036.46
542.901,1035.92
543.037,1041.86
543.173,1043.14
543.308,1050.12
543.444,1063.36
543.58,1092.52
543.715,1118.72
543.851,1116.82
543.987,1108.9
544.123,1117.76
544.258,1136.46
544.394,1161.24
544.529,1189.54
544.665,1217.48
544.801,1247.06
544.936,1266.88
545.072,1274.52
545.208,1260.98
545.343,1232.24
545.479,1195.86
545.614,1145.16
545.75,1101.2
545.886,1068.24
546.021,1046.56
546.157,1028.86
546.292,1016.28
546.428,1006.92
546.563,1002.64
546.699,1000.42
546.834,999.9
546.97,1000.38
547.105,1000.56
547.241,1001.96
547.376,1007.16
547.512,1010.42
547.647,1009.12
547.783,1007.0
547.918,1003.74
548.054,1003.66
548.189,1006.8
548.325,1010.42
548.46,1015.6
548.595,1023.14
548.731,1033.7
548.866,1046.34
549.002,1063.66
549.137,1081.06
549.272,1097.68
549.408,1124.46
549.543,1148.92
549.679,1179.12
549.814,1206.9
549.949,1222.24
550.085,1224.6
550.22,1209.24
550.355,1181.26
550.491,1150.78
550.626,1118.16
550.761,1090.96
550.896,1067.38
551.032,1047.24
551.167,1033.4
551.302,1018.92
551.438,1013.78
551.573,1004.9
551.708,998.72
551.843,995.08
551.979,990.58
552.114,988.42
552.249,984.7
552.384,980.84
552.519,978.2
552.655,978.5
552.79,975.22
552.925,971.7
553.06,971.6
553.195,968.46
553.331,965.02
553.466,965.28
553.601,964.16
553.736,961.16
553.871,962.9
554.006,959.38
554.141,957.14
554.276,957.46
554.412,957.32
554.547,958.28
554.682,957.28
554.817,957.46
554.952,958.48
555.087,957.96
555.222,959.28
555.357,963.42
555.492,969.88
555.627,975.42
555.762,994.72
555.897,1022.22
556.032,1087.98
556.167,1136.06
556.302,1137.26
556.437,1163.02
556.572,1204.18
556.707,1206.96
556.842,1180.92
556.977,1143.1
557.112,1131.24
557.247,1080.26
557.382,1029.8
557.517,1000.38
557.652,983.1
557.787,972.4
557.922,965.28
558.057,959.66
558.192,955.76
558.327,952.14
558.462,951.34
558.596,950.46
558.731,953.3
558.866,956.3
559.001,955.96
559.136,945.96
559.271,942.96
559.406,940.48
559.54,939.14
559.675,938.04
559.81,936.96
559.945,937.54
560.08,942.96
560.215,948.32
560.349,943.74
560.484,939.2
560.619,937.12
560.754,936.3
560.889,940.62
561.023,949.3
561.158,967.34
561.293,973.34
561.428,953.84
561.562,935.9
561.697,934.46
561.832,936.4
561.966,948.16
562.101,952.04
562.236,940.8
562.371,934.14
562.505,931.7
562.64,930.82
562.775,933.0
562.909,933.1
563.044,941.06
563.179,948.0
563.313,948.84
563.448,945.48
563.583,938.52
563.717,932.58
563.852,928.38
563.986,927.64
564.121,926.6
564.256,925.78
564.39,925.38
564.525,924.06
564.659,926.46
564.794,925.26
564.929,924.88
565.063,927.24
565.198,928.76
565.332,931.2
565.467,930.98
565.601,928.04
565.736,925.36
565.87,925.94
566.005,925.28
566.139,925.56
566.274,925.92
566.408,927.6
566.543,935.98
566.677,948.66
566.812,974.82
566.946,995.0
567.081,983.82
567.215,972.6
567.35,974.0
567.484,975.06
567.619,954.54
567.753,936.22
567.888,930.2
568.022,925.68
568.156,924.66
568.291,924.22
568.425,926.98
568.56,927.66
568.694,927.96
568.828,934.66
568.963,945.7
569.097,952.96
569.231,945.92
569.366,938.6
569.5,930.66
569.635,930.08
569.769,929.44
569.903,931.06
570.038,928.52
570.172,935.78
570.306,935.58
570.441,932.0
570.575,928.52
570.709,927.04
570.843,926.0
570.978,927.44
571.112,928.6
571.246,930.18
571.38,931.58
571.515,935.62
571.649,938.8
571.783,939.74
571.917,940.14
572.052,939.02
572.186,941.08
572.32,946.9
572.454,960.98
572.589,994.54
572.723,1017.14
572.857,994.08
572.991,962.82
573.125,948.92
573.26,940.58
573.394,944.52
573.528,956.28
573.662,966.98
573.796,963.84
573.93,945.74
574.064,939.04
574.199,939.88
574.333,937.04
574.467,931.78
574.601,927.46
574.735,924.52
574.869,924.26
575.003,922.98
575.137,925.26
575.271,924.3
575.406,925.16
575.54,923.62
575.674,926.36
575.808,927.74
575.942,936.2
576.076,955.5
576.21,978.72
576.344,977.08
576.478,976.08
576.612,987.0
576.746,1012.7
576.88,1047.18
577.014,1063.96
577.148,1034.78
577.282,992.68
577.416,958.86
577.55,945.02
577.684,939.08
577.818,933.88
577.952,932.4
578.086,929.04
578.22,929.26
578.354,928.84
578.488,926.6
578.622,928.06
578.756,928.82
578.89,928.9
579.023,929.84
579.157,931.46
579.291,930.54
579.425,931.72
579.559,931.28
579.693,930.78
579.827,931.62
579.961,931.68
580.095,931.32
580.228,933.18
580.362,933.1
580.496,932.6
580.63,933.58
580.764,933.56
580.898,934.16
581.032,934.32
581.165,935.96
581.299,937.08
581.433,936.26
581.567,938.5
581.701,937.96
581.834,939.84
581.968,940.62
582.102,941.14
582.236,943.24
582.37,947.72
582.503,946.98
582.637,947.88
582.771,949.18
582.905,951.94
583.038,953.98
583.172,955.26
583.306,956.54
583.44,957.34
583.573,955.08
583.707,955.06
583.841,953.74
583.974,949.7
584.108,947.9
584.242,944.96
584.375,945.54
584.509,943.14
584.643,941.6
584.777,941.84
584.91,941.14
585.044,941.2
585.177,940.86
585.311,941.3
585.445,940.34
585.578,941.06
585.712,942.08
585.846,940.5
585.979,942.24
586.113,939.8
586.247,938.96
586.38,941.56
586.514,939.2
586.647,940.8
586.781,938.8
586.914,938.1
587.048,941.22
587.182,937.44
587.315,937.48
587.449,937.8
587.582,935.36
587.716,935.28
587.849,936.04
587.983,935.86
588.116,935.82
588.25,936.38
588.384,933.92
588.517,933.96
588.651,934.98
588.784,934.66
588.918,934.32
589.051,933.88
589.185,934.04
589.318,934.14
589.452,932.98
589.585,932.96
589.718,931.56
589.852,933.02
589.985,932.76
590.119,933.9
590.252,934.34
590.386,931.28
590.519,932.1
590.653,932.36
590.786,932.36
590.919,932.98
591.053,931.86
591.186,934.86
591.32,931.72
591.453,931.66
591.586,931.28
591.72,931.46
591.853,932.2
591.987,932.46
592.12,932.32
592.253,931.5
592.387,932.36
592.52,931.14
592.653,932.8
592.787,931.46
592.92,932.08
593.053,932.88
593.187,932.98
593.32,932.66
593.453,932.74
593.587,931.44
593.72,933.14
593.853,931.88
593.987,930.9
594.12,931.3
594.253,931.74
594.386,932.2
594.52,931.42
594.653,934.56
594.786,935.22
594.919,933.04
595.053,933.76
595.186,935.02
595.319,936.54
595.452,934.1
595.586,935.94
595.719,935.66
595.852,936.46
595.985,936.84
596.119,935.96
596.252,934.8
596.385,935.02
596.518,934.04
596.651,935.14
596.785,936.52
596.918,937.58
597.051,937.38
597.184,936.82
597.317,936.04
597.45,937.38
597.584,936.38
597.717,936.54
597.85,938.6
597.983,938.88
598.116,937.84
598.249,937.48
598.382,939.92
598.516,940.56
598.649,940.8
598.782,938.98
598.915,939.18
599.048,940.76
599.181,940.78
599.314,940.92
599.447,940.94
599.58,939.46
599.713,938.62
599.847,940.38
599.98,941.06
600.113,940.26
600.246,939.22
600.379,940.16
600.512,940.46
600.645,941.16
600.778,939.72
600.911,940.54
601.044,939.64
601.177,939.92
601.31,940.8
601.443,939.52
601.576,940.12
601.709,940.64
601.842,938.64
601.975,940.68
602.108,940.54
602.241,940.0
602.374,939.78
602.507,941.72
602.64,940.2
602.773,941.32
602.906,939.3
603.039,943.02
603.172,940.46
603.305,943.24
603.438,940.42
603.571,942.92
603.703,941.64
603.836,942.12
603.969,944.14
604.102,942.64
604.235,943.88
604.368,943.06
604.501,942.92
604.634,943.5
604.767,943.16
604.9,940.4
605.033,942.42
605.165,942.62
605.298,941.32
605.431,943.06
605.564,942.02
605.697,941.58
605.83,941.48
605.963,940.64
606.095,941.32
606.228,940.94
606.361,941.62
606.494,941.98
606.627,943.58
606.76,941.82
606.892,943.28
607.025,945.38
607.158,944.54
607.291,942.22
607.424,944.56
607.556,944.28
607.689,944.14
607.822,945.74
607.955,944.32
608.088,946.42
608.22,944.16
608.353,945.66
608.486,946.84
608.619,947.02
608.751,946.78
608.884,945.28
609.017,947.46
609.15,948.44
609.282,946.92
609.415,948.1
609.548,947.5
609.681,947.48
609.813,946.0
609.946,948.36
610.079,948.76
610.211,948.3
610.344,949.1
610.477,948.68
610.609,948.7
610.742,946.06
610.875,946.78
611.007,949.28
611.14,948.88
611.273,947.86
611.405,948.64
611.538,950.06
611.671,950.94
611.803,949.52
611.936,950.84
612.069,950.74
612.201,951.9
612.334,953.08
612.467,952.58
612.599,951.98
612.732,954.46
612.864,954.82
612.997,952.36
613.13,954.28
613.262,954.7
613.395,953.64
613.527,956.54
613.66,955.32
613.793,954.78
613.925,954.28
614.058,955.62
614.19,953.94
614.323,954.44
614.456,955.78
614.588,956.54
614.721,958.72
614.853,955.9
614.986,957.3
615.118,957.38
615.251,956.28
615.383,957.94
615.516,955.06
615.648,958.18
615.781,956.7
615.913,957.54
616.046,957.04
616.178,955.68
616.311,958.94
616.443,958.12
616.576,957.58
616.708,958.3
616.841,960.52
616.973,959.98
617.106,961.36
617.238,961.94
617.371,958.58
617.503,961.94
617.636,962.62
617.768,962.7
617.901,962.32
618.033,963.4
618.166,961.44
618.298,961.36
618.43,963.14
618.563,963.4
618.695,965.02
618.828,963.94
618.96,965.18
619.093,965.92
619.225,964.92
619.357,966.5
619.49,969.66
619.622,969.44
619.755,970.04
619.887,970.04
620.019,968.88
620.152,969.4
620.284,966.44
620.417,969.0
620.549,969.3
620.681,968.54
620.814,969.7
620.946,966.68
621.078,970.4
621.211,968.3
621.343,969.42
621.475,975.96
621.608,975.62
621.74,979.62
621.872,981.46
622.005,985.16
622.137,991.02
622.269,998.7
622.402,1007.36
622.534,1000.82
622.666,994.68
622.799,990.62
622.931,987.7
623.063,981.8
623.195,979.76
623.328,978.74
623.46,976.2
623.592,975.5
623.725,977.16
623.857,972.8
623.989,970.98
624.121,970.08
624.254,971.8
624.386,973.14
624.518,973.28
624.65,970.74
624.783,971.66
624.915,972.94
625.047,973.62
625.179,974.42
625.312,972.68
625.444,974.08
625.576,978.36
625.708,981.18
625.841,980.8
625.973,984.02
626.105,987.82
626.237,995.0
626.369,1005.46
626.502,1024.98
626.634,1069.64
626.766,1138.9
626.898,1197.18
627.03,1191.32
627.163,1151.5
627.295,1116.82
627.427,1096.14
627.559,1094.44
627.691,1114.54
627.823,1184.66
627.956,1289.7
628.088,1352.04
628.22,1375.14
628.352,1399.34
628.484,1449.02
628.616,1473.64
628.748,1464.98
628.881,1426.52
629.013,1384.92
629.145,1352.38
629.277,1343.22
629.409,1349.6
629.541,1353.64
629.673,1345.18
629.805,1307.66
629.937,1284.86
630.07,1279.2
630.202,1281.44
630.334,1286.42
630.466,1268.98
630.598,1232.26
630.73,1193.74
630.862,1163.5
630.994,1148.46
631.126,1171.74
631.258,1217.3
631.39,1250.9
631.522,1268.36
631.655,1276.3
631.787,1264.72
631.919,1226.4
632.051,1177.94
632.183,1127.88
632.315,1089.6
632.447,1060.16
632.579,1041.84
632.711,1025.94
632.843,1012.58
632.975,1009.08
633.107,1000.36
633.239,998.8
633.371,993.76
633.503,989.08
633.635,986.44
633.767,982.12
633.899,982.5
634.031,979.36
634.163,976.86
634.295,974.34
634.427,973.7
634.559,973.32
634.691,969.06
634.823,973.32
634.955,971.58
635.087,971.2
635.219,972.56
635.351,967.96
635.483,970.12
635.615,967.02
635.747,967.7
635.879,967.86
636.011,969.56
636.143,967.8
636.275,967.28
636.406,967.5
636.538,967.9
636.67,967.32
636.802,965.72
636.934,964.66
637.066,965.18
637.198,966.72
637.33,965.7
637.462,965.12
637.594,962.04
637.726,965.76
637.858,965.94
637.989,965.8
638.121,965.68
638.253,964.12
638.385,965.1
638.517,964.86
638.649,963.88
638.781,965.56
638.913,965.98
639.045,965.52
639.176,965.14
639.308,966.18
639.44,965.76
639.572,966.54
639.704,966.48
639.836,966.02
639.968,964.06
640.1,965.26
640.231,964.64
640.363,965.3
640.495,965.76
640.627,962.68
640.759,966.26
640.891,966.08
641.022,966.82
641.154,965.38
641.286,963.5
641.418,963.6
641.55,965.62
641.682,962.9
641.813,966.42
641.945,964.8
642.077,965.58
642.209,963.14
642.341,962.44
642.472,964.0
642.604,963.1
642.736,962.58
642.868,962.18
643.0,962.06
643.131,961.06
643.263,961.0
643.395,961.0
643.527,961.08
643.658,961.14
643.79,960.16
643.922,961.24
644.054,960.5
644.186,962.2
644.317,961.68
644.449,959.54
644.581,960.18
644.713,957.28
644.844,959.8
644.976,959.76
645.108,957.8
645.24,959.16
645.371,959.82
645.503,960.14
645.635,958.08
645.767,959.6
645.898,959.94
646.03,958.6
646.162,959.54
646.293,961.04
646.425,959.48
646.557,959.66
646.689,958.12
646.82,960.86
646.952,960.86
647.084,959.46
647.215,960.4
647.347,962.2
647.479,961.06
647.61,961.08
647.742,960.74
647.874,960.24
648.006,960.22
648.137,959.12
648.269,961.68
648.401,959.66
648.532,958.66
648.664,961.54
648.796,962.1
648.927,960.98
649.059,959.7
649.191,961.52
649.322,960.72
649.454,960.22
649.586,958.28
649.717,960.32
649.849,957.22
649.981,959.48
650.112,960.94
650.244,958.64
650.375,959.02
650.507,959.18
650.639,958.88
650.77,960.48
650.902,958.9
651.034,959.46
651.165,961.32
651.297,960.38
651.429,961.18
651.56,961.28
651.692,959.72
651.823,958.26
651.955,960.82
652.087,960.42
652.218,962.2
652.35,960.94
652.481,962.32
652.613,959.54
652.745,959.68
652.876,962.34
653.008,960.82
653.139,963.24
653.271,962.04
653.403,960.26
653.534,960.22
653.666,962.38
653.797,961.12
653.929,963.06
654.061,961.6
654.192,963.28
654.324,962.12
654.455,962.5
654.587,962.22
654.718,962.96
654.85,960.84
654.982,963.02
655.113,961.98
655.245,961.84
655.376,963.88
655.508,962.84
655.639,963.4
655.771,963.76
655.902,963.98
656.034,963.48
656.166,963.22
656.297,962.96
656.429,963.54
656.56,963.48
656.692,965.18
656.823,965.58
656.955,966.52
657.086,964.26
657.218,963.46
657.349,966.16
657.481,965.48
657.612,964.12
657.744,967.1
657.875,965.18
658.007,965.1
658.138,965.68
658.27,966.16
658.401,966.16
658.533,966.54
658.664,962.24
658.796,967.18
658.927,964.7
659.059,965.34
659.19,965.52
659.322,967.7
659.453,968.28
659.585,967.52
659.716,966.86
659.848,967.32
659.979,968.4
660.111,965.96
660.242,967.22
660.374,967.96
660.505,966.88
660.637,967.26
660.768,969.28
660.9,967.74
661.031,965.68
661.163,967.64
661.294,965.22
661.426,966.08
661.557,964.5
661.689,968.36
661.82,966.94
661.951,965.54
662.083,966.54
662.214,966.96
662.346,965.94
662.477,964.48
662.609,965.48
662.74,966.02
662.872,966.18
663.003,964.94
663.135,964.56
