nm,Intensity
526.553,834.92
526.69,835.4
526.827,834.92
526.963,835.28
527.1,835.26
527.237,835.62
527.373,835.44
527.51,835.04
527.647,835.24
527.784,834.66
527.92,834.88
528.057,835.78
528.194,835.12
528.33,835.14
528.467,835.62
528.603,835.74
528.74,835.54
528.877,835.4
529.013,835.26
529.15,835.14
529.286,835.28
529.423,834.86
529.56,835.04
529.696,835.52
529.833,835.08
529.969,835.02
530.106,835.64
530.242,835.16
530.379,835.48
530.515,835.1
530.652,835.48
530.788,834.68
530.925,835.6
531.061,835.0
531.198,834.88
531.334,834.54
531.47,835.22
531.607,835.42
531.743,834.58
531.88,835.68
532.016,840.36
532.152,857.82
532.289,851.26
532.425,836.9
532.562,835.54
532.698,835.66
532.834,835.46
532.971,835.16
533.107,834.88
533.243,835.32
533.38,834.8
533.516,835.4
533.652,836.32
533.789,845.26
533.925,874.4
534.061,905.1
534.197,917.1
534.334,916.2
534.47,914.88
534.606,916.96
534.742,919.28
534.879,917.76
535.015,916.3
535.151,915.16
535.287,915.98
535.423,916.98
535.56,915.94
535.696,917.38
535.832,917.04
535.968,917.06
536.104,919.18
536.24,918.62
536.376,920.62
536.513,917.84
536.649,918.06
536.785,917.38
536.921,916.38
537.057,917.96
537.193,920.82
537.329,918.5
537.465,919.96
537.601,920.34
537.737,919.66
537.873,919.84
538.009,921.88
538.145,923.2
538.281,924.06
538.417,923.28
538.553,922.7
538.689,922.28
538.825,922.98
538.961,922.12
539.097,923.38
539.233,923.04
539.369,923.9
539.505,922.9
539.641,923.8
539.777,923.3
539.913,923.8
540.049,924.0
540.185,922.4
540.321,922.36
540.457,922.08
540.592,923.1
540.728,922.34
540.864,922.6
541.0,923.42
541.136,922.94
541.272,924.22
541.408,921.92
541.543,922.98
541.679,924.84
541.815,923.94
541.951,923.5
542.087,923.54
542.222,925.5
542.358,925.28
542.494,925.28
542.63,928.24
542.765,927.08
542.901,926.16
543.037,927.8
543.173,927.82
543.308,927.7
543.444,929.26
543.58,929.22
543.715,928.76
543.851,929.92
543.987,929.7
544.123,931.82
544.258,932.88
544.394,932.62
544.529,933.42
544.665,937.64
544.801,939.06
544.936,940.5
545.072,938.42
545.208,941.78
545.343,939.72
545.479,938.28
545.614,936.6
545.75,936.16
545.886,935.86
546.021,935.04
546.157,933.2
546.292,933.14
546.428,933.94
546.563,934.22
546.699,933.12
546.834,932.82
546.97,935.86
547.105,935.98
547.241,932.76
547.376,933.28
547.512,933.64
547.647,934.1
547.783,933.4
547.918,933.64
548.054,934.56
548.189,934.6
548.325,934.7
548.46,936.24
548.595,936.06
548.731,936.8
548.866,938.6
549.002,938.54
549.137,939.74
549.272,940.56
549.408,942.06
549.543,943.82
549.679,944.62
549.814,943.74
549.949,945.54
550.085,946.44
550.22,946.42
550.355,944.18
550.491,940.4
550.626,941.32
550.761,939.72
550.896,938.46
551.032,939.2
551.167,937.0
551.302,937.72
551.438,936.24
551.573,935.64
551.708,937.78
551.843,936.52
551.979,936.62
552.114,935.64
552.249,937.12
552.384,934.88
552.519,935.04
552.655,934.62
552.79,936.2
552.925,934.88
553.06,934.92
553.195,938.32
553.331,936.02
553.466,935.02
553.601,934.28
553.736,934.2
553.871,936.08
554.006,935.46
554.141,936.4
554.276,936.5
554.412,936.36
554.547,937.5
554.682,936.44
554.817,934.8
554.952,934.5
555.087,932.64
555.222,935.62
555.357,935.2
555.492,933.9
555.627,933.72
555.762,936.72
555.897,933.94
556.032,934.94
556.167,936.06
556.302,935.72
556.437,934.58
556.572,934.74
556.707,933.52
556.842,935.92
556.977,935.58
557.112,937.2
557.247,936.88
557.382,936.18
557.517,935.4
557.652,935.7
557.787,936.78
557.922,936.8
558.057,935.7
558.192,935.32
558.327,935.44
558.462,935.28
558.596,935.68
558.731,935.84
558.866,934.4
559.001,937.0
559.136,935.88
559.271,936.66
559.406,936.26
559.54,938.06
559.675,935.66
559.81,937.56
559.945,938.18
560.08,938.68
560.215,936.98
560.349,937.48
560.484,937.6
560.619,940.08
560.754,938.5
560.889,939.02
561.023,938.5
561.158,938.7
561.293,939.34
561.428,939.34
561.562,938.36
561.697,938.26
561.832,939.62
561.966,938.74
562.101,939.8
562.236,938.98
562.371,939.02
562.505,939.4
562.64,938.3
562.775,941.64
562.909,940.66
563.044,941.44
563.179,942.2
563.313,942.86
563.448,942.44
563.583,945.58
563.717,945.44
563.852,948.44
563.986,956.58
564.121,959.3
564.256,950.58
564.39,947.76
564.525,947.78
564.659,947.64
564.794,950.0
564.929,946.82
565.063,946.68
565.198,948.14
565.332,950.1
565.467,945.46
565.601,946.04
565.736,948.76
565.87,949.76
566.005,954.2
566.139,963.22
566.274,961.9
566.408,952.76
566.543,949.78
566.677,947.24
566.812,947.6
566.946,944.78
567.081,948.9
567.215,946.24
567.35,947.56
567.484,948.32
567.619,948.66
567.753,948.04
567.888,947.9
568.022,948.48
568.156,948.18
568.291,947.78
568.425,948.12
568.56,949.06
568.694,950.04
568.828,948.46
568.963,953.18
569.097,952.06
569.231,951.62
569.366,951.92
569.5,953.04
569.635,954.54
569.769,952.5
569.903,953.46
570.038,953.84
570.172,955.96
570.306,953.32
570.441,954.7
570.575,955.36
570.709,956.26
570.843,956.46
570.978,956.5
571.112,955.0
571.246,958.0
571.38,962.74
571.515,979.52
571.649,983.16
571.783,969.02
571.917,962.3
572.052,961.14
572.186,961.38
572.32,958.92
572.454,959.92
572.589,960.94
572.723,959.64
572.857,959.86
572.991,961.48
573.125,959.9
573.26,961.02
573.394,961.48
573.528,961.9
573.662,962.22
573.796,963.84
573.93,963.42
574.064,963.22
574.199,963.52
574.333,964.2
574.467,963.06
574.601,962.44
574.735,962.32
574.869,963.68
575.003,963.7
575.137,963.2
575.271,964.52
575.406,966.98
575.54,969.86
575.674,972.74
575.808,969.62
575.942,971.76
576.076,975.16
576.21,984.22
576.344,989.98
576.478,985.48
576.612,980.64
576.746,977.82
576.88,978.12
577.014,979.6
577.148,980.12
577.282,977.74
577.416,973.58
577.55,971.9
577.684,967.64
577.818,969.28
577.952,969.16
578.086,967.46
578.22,966.26
578.354,969.08
578.488,968.1
578.622,967.38
578.756,966.26
578.89,968.24
579.023,968.6
579.157,966.28
579.291,966.56
579.425,966.94
579.559,968.36
579.693,966.46
579.827,967.18
579.961,964.74
580.095,967.02
580.228,968.54
580.362,967.32
580.496,966.66
580.63,967.34
580.764,967.16
580.898,967.88
581.032,967.1
581.165,966.62
581.299,967.78
581.433,965.26
581.567,966.26
581.701,966.34
581.834,967.32
581.968,967.16
582.102,967.62
582.236,967.16
582.37,969.52
582.503,969.64
582.637,968.38
582.771,968.1
582.905,968.44
583.038,968.24
583.172,968.06
583.306,968.3
583.44,968.26
583.573,968.88
583.707,968.28
583.841,969.62
583.974,969.2
584.108,969.5
584.242,968.78
584.375,969.08
584.509,968.36
584.643,968.52
584.777,967.68
584.91,968.06
585.044,969.32
585.177,970.0
585.311,969.62
585.445,968.4
585.578,968.24
585.712,968.54
585.846,970.86
585.979,969.04
586.113,969.7
586.247,970.46
586.38,970.44
586.514,969.38
586.647,971.42
586.781,970.68
586.914,971.2
587.048,970.5
587.182,970.66
587.315,970.62
587.449,970.46
587.582,972.22
587.716,970.58
587.849,971.9
587.983,970.76
588.116,970.6
588.25,969.4
588.384,970.32
588.517,969.28
588.651,968.14
588.784,969.46
588.918,968.16
589.051,968.44
589.185,965.5
589.318,968.2
589.452,966.68
589.585,966.72
589.718,967.6
589.852,966.32
589.985,967.56
590.119,969.24
590.252,968.48
590.386,965.84
590.519,967.88
590.653,966.38
590.786,967.6
590.919,967.98
591.053,967.52
591.186,967.58
591.32,967.88
591.453,969.06
591.586,967.3
591.72,966.5
591.853,964.54
591.987,965.04
592.12,966.78
592.253,966.26
592.387,965.7
592.52,966.2
592.653,964.7
592.787,966.3
592.92,964.98
593.053,963.3
593.187,963.4
593.32,963.38
593.453,964.4
593.587,965.08
593.72,963.88
593.853,962.16
593.987,962.76
594.12,964.0
594.253,964.22
594.386,964.66
594.52,962.36
594.653,963.16
594.786,960.52
594.919,964.3
595.053,962.42
595.186,964.76
595.319,964.28
595.452,965.42
595.586,962.82
595.719,962.56
595.852,963.6
595.985,962.96
596.119,961.36
596.252,961.94
596.385,963.16
596.518,963.28
596.651,960.94
596.785,963.84
596.918,962.6
597.051,963.06
597.184,961.86
597.317,961.08
597.45,961.56
597.584,961.14
597.717,962.58
597.85,963.38
597.983,963.3
598.116,964.6
598.249,962.14
598.382,962.56
598.516,962.58
598.649,963.14
598.782,963.32
598.915,962.38
599.048,962.94
599.181,962.52
599.314,961.94
599.447,965.7
599.58,961.54
599.713,962.56
599.847,963.42
599.98,960.82
600.113,960.4
600.246,961.14
600.379,961.14
600.512,959.08
600.645,959.94
600.778,959.7
600.911,960.76
601.044,958.12
601.177,960.42
601.31,958.02
601.443,959.68
601.576,959.64
601.709,957.38
601.842,961.2
601.975,960.04
602.108,959.3
602.241,957.66
602.374,958.12
602.507,958.14
602.64,958.26
602.773,957.08
602.906,958.34
603.039,956.94
603.172,957.36
603.305,955.38
603.438,958.02
603.571,954.6
603.703,956.86
603.836,956.18
603.969,956.24
604.102,955.92
604.235,957.02
604.368,958.02
604.501,956.28
604.634,956.94
604.767,954.48
604.9,953.96
605.033,954.36
605.165,954.58
605.298,954.66
605.431,952.64
605.564,951.44
605.697,953.36
605.83,951.86
605.963,950.8
606.095,951.66
606.228,951.32
606.361,950.28
606.494,951.0
606.627,950.6
606.76,951.94
606.892,951.58
607.025,949.88
607.158,952.2
607.291,949.9
607.424,951.02
607.556,953.02
607.689,952.72
607.822,951.24
607.955,952.1
608.088,952.96
608.22,951.28
608.353,950.8
608.486,952.14
608.619,949.18
608.751,950.18
608.884,950.84
609.017,949.84
609.15,951.44
609.282,951.96
609.415,949.0
609.548,951.4
609.681,949.26
609.813,950.36
609.946,949.74
610.079,949.8
610.211,948.2
610.344,949.42
610.477,948.6
610.609,950.58
610.742,948.26
610.875,949.46
611.007,949.04
611.14,949.54
611.273,948.88
611.405,948.64
611.538,948.82
611.671,951.74
611.803,950.96
611.936,950.46
612.069,950.04
612.201,952.04
612.334,950.36
612.467,949.9
612.599,953.32
612.732,950.2
612.864,951.3
612.997,951.26
613.13,950.94
613.262,950.68
613.395,950.7
613.527,952.3
613.66,952.14
613.793,953.18
613.925,951.28
614.058,952.56
614.19,952.64
614.323,951.44
614.456,951.48
614.588,950.5
614.721,951.14
614.853,951.3
614.986,951.66
615.118,952.96
615.251,951.36
615.383,950.9
615.516,951.24
615.648,950.96
615.781,951.3
615.913,948.38
616.046,950.8
616.178,950.7
616.311,950.04
616.443,952.38
616.576,949.7
616.708,951.52
616.841,949.38
616.973,951.98
617.106,951.54
617.238,953.04
617.371,952.84
617.503,952.04
617.636,952.64
617.768,951.7
617.901,954.44
618.033,953.52
618.166,951.84
618.298,951.64
618.43,951.68
618.563,952.26
618.695,950.16
618.828,949.96
618.96,951.4
619.093,950.96
619.225,950.96
619.357,950.32
619.49,951.18
619.622,952.04
619.755,952.76
619.887,951.1
620.019,952.1
620.152,950.02
620.284,948.46
620.417,952.18
620.549,951.64
620.681,950.58
620.814,952.42
620.946,951.66
621.078,950.72
621.211,953.48
621.343,952.32
621.475,953.54
621.608,952.24
621.74,951.16
621.872,955.9
622.005,955.44
622.137,956.62
622.269,957.08
622.402,960.12
622.534,959.7
622.666,955.0
622.799,955.62
622.931,953.38
623.063,954.1
623.195,951.16
623.328,953.44
623.46,950.56
623.592,952.12
623.725,951.96
623.857,951.54
623.989,950.1
624.121,950.08
624.254,951.16
624.386,950.4
624.518,951.66
624.65,949.78
624.783,951.12
624.915,950.08
625.047,948.54
625.179,949.98
625.312,951.44
625.444,950.8
625.576,950.5
625.708,952.04
625.841,952.04
625.973,950.7
626.105,949.92
626.237,952.58
626.369,954.36
626.502,959.86
626.634,966.3
626.766,980.76
626.898,1003.76
627.03,1034.18
627.163,1060.54
627.295,1069.08
627.427,1056.3
627.559,1040.3
627.691,1028.76
627.823,1021.34
627.956,1014.28
628.088,1012.38
628.22,1019.04
628.352,1036.5
628.484,1079.66
628.616,1103.1
628.748,1069.68
628.881,1037.76
629.013,1024.82
629.145,1021.14
629.277,1014.74
629.409,1010.16
629.541,1003.68
629.673,1000.18
629.805,993.08
629.937,992.56
630.07,988.74
630.202,987.54
630.334,987.62
630.466,986.1
630.598,983.44
630.73,980.42
630.862,973.82
630.994,966.42
631.126,960.3
631.258,955.28
631.39,954.6
631.522,952.76
631.655,949.38
631.787,949.86
631.919,949.34
632.051,947.32
632.183,945.06
632.315,945.36
632.447,944.18
632.579,941.32
632.711,941.56
632.843,943.68
632.975,943.44
633.107,943.0
633.239,942.42
633.371,941.56
633.503,940.04
633.635,940.46
633.767,939.98
633.899,940.72
634.031,940.56
634.163,939.94
634.295,937.72
634.427,940.82
634.559,937.36
634.691,937.86
634.823,938.06
634.955,938.62
635.087,938.0
635.219,938.18
635.351,937.84
635.483,937.5
635.615,936.32
635.747,937.84
635.879,936.42
636.011,936.18
636.143,937.68
636.275,937.28
636.406,936.92
636.538,936.52
636.67,936.06
636.802,935.48
636.934,936.1
637.066,935.6
637.198,935.18
637.33,933.68
637.462,935.62
637.594,934.72
637.726,933.96
637.858,933.1
637.989,933.14
638.121,935.24
638.253,933.32
638.385,933.76
638.517,932.0
638.649,932.12
638.781,933.24
638.913,932.12
639.045,932.42
639.176,933.58
639.308,932.44
639.44,933.72
639.572,933.1
639.704,931.8
639.836,933.34
639.968,933.56
640.1,932.96
640.231,931.44
640.363,932.78
640.495,932.64
640.627,932.56
640.759,931.54
640.891,931.32
641.022,931.4
641.154,932.3
641.286,929.58
641.418,929.8
641.55,930.58
641.682,931.58
641.813,929.26
641.945,929.84
642.077,930.1
642.209,929.14
642.341,930.18
642.472,928.28
642.604,930.1
642.736,927.52
642.868,928.6
643.0,928.3
643.131,928.5
643.263,926.4
643.395,927.82
643.527,928.24
643.658,924.98
643.79,926.42
643.922,924.52
644.054,926.22
644.186,926.22
644.317,925.62
644.449,927.1
644.581,925.3
644.713,924.26
644.844,925.04
644.976,924.04
645.108,924.1
645.24,924.44
645.371,923.88
645.503,922.46
645.635,923.78
645.767,922.9
645.898,921.3
646.03,923.94
646.162,923.32
646.293,923.5
646.425,921.86
646.557,923.42
646.689,923.78
646.82,922.14
646.952,922.76
647.084,922.8
647.215,922.84
647.347,922.82
647.479,922.46
647.61,922.56
647.742,922.62
647.874,921.96
648.006,921.78
648.137,921.94
648.269,921.26
648.401,922.1
648.532,920.56
648.664,921.48
648.796,920.38
648.927,920.04
649.059,920.12
649.191,920.32
649.322,920.52
649.454,919.8
649.586,920.82
649.717,919.32
649.849,918.74
649.981,918.42
650.112,919.04
650.244,920.0
650.375,918.62
650.507,918.7
650.639,917.94
650.77,918.56
650.902,916.02
651.034,916.76
651.165,917.54
651.297,918.36
651.429,917.22
651.56,917.32
651.692,918.02
651.823,916.88
651.955,916.72
652.087,917.44
652.218,916.32
652.35,915.18
652.481,918.72
652.613,916.9
652.745,916.84
652.876,916.66
653.008,917.22
653.139,916.04
653.271,917.2
653.403,915.88
653.534,915.64
653.666,917.16
653.797,916.02
653.929,915.24
654.061,917.36
654.192,916.5
654.324,915.5
654.455,916.84
654.587,914.22
654.718,914.1
654.85,915.34
654.982,916.54
655.113,915.08
655.245,915.14
655.376,914.88
655.508,915.18
655.639,915.56
655.771,916.22
655.902,914.58
656.034,914.02
656.166,913.96
656.297,913.54
656.429,913.72
656.56,912.28
656.692,914.22
656.823,912.0
656.955,913.34
657.086,913.82
657.218,912.24
657.349,911.76
657.481,914.3
657.612,913.92
657.744,913.06
657.875,914.22
658.007,913.84
658.138,913.54
658.27,912.2
658.401,913.14
658.533,912.16
658.664,912.82
658.796,911.4
658.927,912.8
659.059,910.38
659.19,912.44
659.322,912.8
659.453,912.18
659.585,909.94
659.716,911.78
659.848,913.46
659.979,910.82
660.111,912.68
660.242,912.88
660.374,910.36
660.505,910.34
660.637,910.24
660.768,910.46
660.9,911.78
661.031,909.8
661.163,910.5
661.294,908.04
661.426,908.92
661.557,910.1
661.689,908.44
661.82,910.12
661.951,908.36
662.083,908.46
662.214,909.22
662.346,908.06
662.477,907.82
662.609,907.72
662.74,910.58
662.872,906.52
663.003,907.68
663.135,906.94
