nm,Intensity
526.547,832.6
526.684,831.9
526.821,832.4
526.958,831.05
527.095,832.55
527.232,831.6
527.368,832.7
527.505,832.6
527.642,832.7
527.779,831.95
527.916,832.0
528.052,832.55
528.189,831.15
528.326,832.5
528.463,832.15
528.599,833.55
528.736,832.55
528.873,832.85
529.009,831.5
529.146,831.7
529.283,832.25
529.419,832.5
529.556,833.3
529.693,831.45
529.829,831.95
529.966,832.95
530.103,833.4
530.239,831.95
530.376,831.9
530.512,832.8
530.649,833.1
530.785,832.55
530.922,832.1
531.059,832.1
531.195,832.9
531.332,831.65
531.468,832.5
531.605,831.25
531.741,832.5
531.878,833.9
532.014,839.25
532.151,866.0
532.287,858.95
532.423,835.45
532.56,832.4
532.696,833.0
532.833,833.3
532.969,832.1
533.106,831.7
533.242,833.75
533.378,832.25
533.515,835.95
533.651,866.25
533.787,1110.6
533.924,2005.25
534.06,3033.9
534.196,3339.3
534.333,3243.25
534.469,3050.85
534.605,2889.1
534.742,2712.0
534.878,2501.3
535.014,2244.5
535.15,2021.65
535.287,1837.45
535.423,1686.55
535.559,1544.6
535.695,1434.95
535.832,1346.3
535.968,1275.8
536.104,1214.0
536.24,1176.9
536.376,1145.5
536.513,1126.3
536.649,1108.4
536.785,1102.5
536.921,1090.05
537.057,1084.9
537.193,1067.35
537.329,1061.05
537.465,1052.2
537.602,1042.65
537.738,1041.45
537.874,1045.9
538.01,1051.05
538.146,1066.75
538.282,1077.75
538.418,1087.45
538.554,1089.9
538.69,1080.05
538.826,1052.85
538.962,1016.9
539.098,982.1
539.234,950.85
539.37,934.45
539.506,921.9
539.642,919.55
539.778,916.7
539.914,915.45
540.05,913.9
540.186,909.6
540.322,906.8
540.458,903.3
540.594,897.35
540.729,897.7
540.865,894.7
541.001,892.65
541.137,894.25
541.273,892.55
541.409,894.0
541.545,896.1
541.68,894.35
541.816,895.75
541.952,893.25
542.088,893.35
542.224,892.1
542.36,889.8
542.495,888.75
542.631,887.05
542.767,889.0
542.903,891.85
543.038,896.3
543.174,896.6
543.31,901.45
543.446,904.2
543.581,907.5
543.717,911.8
543.853,917.45
543.988,920.65
544.124,913.35
544.26,908.3
544.395,901.6
544.531,896.35
544.667,894.5
544.802,894.15
544.938,889.25
545.074,886.8
545.209,885.25
545.345,882.25
545.481,876.7
545.616,878.0
545.752,876.6
545.887,874.2
546.023,874.9
546.158,876.25
546.294,873.7
546.43,873.45
546.565,872.55
546.701,873.4
546.836,874.65
546.972,873.15
547.107,876.15
547.243,874.85
547.378,875.75
547.514,878.9
547.649,879.75
547.785,884.15
547.92,888.6
548.056,887.05
548.191,886.1
548.326,884.8
548.462,882.4
548.597,881.25
548.733,881.2
548.868,881.25
549.004,877.8
549.139,878.7
549.274,878.6
549.41,875.95
549.545,876.05
549.68,875.3
549.816,875.45
549.951,877.1
550.086,883.75
550.222,935.5
550.357,1031.5
550.492,984.8
550.628,906.9
550.763,883.55
550.898,874.55
551.034,869.2
551.169,865.9
551.304,866.95
551.439,865.9
551.575,865.1
551.71,863.55
551.845,863.6
551.98,865.85
552.116,864.0
552.251,864.7
552.386,864.25
552.521,866.35
552.656,867.1
552.792,871.1
552.927,869.75
553.062,867.5
553.197,864.85
553.332,865.35
553.467,865.85
553.603,869.05
553.738,875.3
553.873,888.1
554.008,902.65
554.143,908.75
554.278,917.65
554.413,926.55
554.548,934.85
554.683,933.7
554.819,928.55
554.954,922.95
555.089,919.15
555.224,920.95
555.359,935.15
555.494,966.05
555.629,996.1
555.764,1002.45
555.899,977.55
556.034,938.9
556.169,918.9
556.304,905.25
556.439,892.1
556.574,882.35
556.709,882.25
556.844,886.3
556.979,897.15
557.114,906.45
557.249,902.55
557.384,892.6
557.519,886.65
557.653,884.6
557.788,886.75
557.923,886.45
558.058,882.6
558.193,884.65
558.328,884.25
558.463,882.35
558.598,885.05
558.733,883.1
558.867,887.45
559.002,900.1
559.137,903.3
559.272,897.15
559.407,889.0
559.542,880.45
559.677,876.95
559.811,871.35
559.946,874.95
560.081,876.8
560.216,878.75
560.351,880.4
560.485,879.3
560.62,879.5
560.755,881.25
560.89,885.2
561.024,888.5
561.159,890.25
561.294,891.55
561.429,906.05
561.563,929.2
561.698,976.2
561.833,1054.7
561.967,1340.2
562.102,2123.3
562.237,2083.55
562.371,1282.9
562.506,983.1
562.641,931.1
562.775,952.9
562.91,1062.9
563.045,1228.15
563.179,1238.3
563.314,1086.6
563.449,979.6
563.583,936.35
563.718,922.25
563.853,916.15
563.987,918.55
564.122,921.6
564.256,926.65
564.391,931.2
564.525,925.25
564.66,921.65
564.795,917.0
564.929,919.7
565.064,921.65
565.198,919.5
565.333,915.35
565.467,903.85
565.602,897.55
565.736,888.05
565.871,884.3
566.005,880.15
566.14,877.05
566.274,878.6
566.409,880.85
566.543,884.25
566.678,900.45
566.812,928.4
566.947,979.8
567.081,1017.8
567.216,982.8
567.35,946.7
567.484,936.25
567.619,948.1
567.753,1002.35
567.888,1067.1
568.022,1072.5
568.156,1064.95
568.291,1079.85
568.425,1107.1
568.56,1100.45
568.694,1060.8
568.828,1009.7
568.963,967.45
569.097,943.85
569.231,933.75
569.366,924.15
569.5,913.7
569.634,907.15
569.769,902.85
569.903,903.3
570.037,901.05
570.172,902.7
570.306,897.95
570.44,896.7
570.575,895.95
570.709,896.2
570.843,894.65
570.977,896.15
571.112,896.65
571.246,896.85
571.38,900.0
571.514,905.05
571.649,908.7
571.783,916.0
571.917,918.1
572.051,920.3
572.185,922.25
572.32,930.2
572.454,943.3
572.588,947.85
572.722,948.8
572.856,942.55
572.991,932.95
573.125,920.5
573.259,914.8
573.393,908.4
573.527,909.6
573.661,908.65
573.795,908.05
573.93,909.95
574.064,909.9
574.198,907.55
574.332,898.95
574.466,892.55
574.6,886.85
574.734,884.05
574.868,884.15
575.002,882.25
575.136,881.9
575.271,881.25
575.405,881.05
575.539,878.8
575.673,880.85
575.807,880.25
575.941,881.75
576.075,891.95
576.209,908.5
576.343,924.9
576.477,944.35
576.611,961.3
576.745,967.3
576.879,945.85
577.013,910.65
577.147,891.8
577.281,885.9
577.415,883.8
577.549,881.45
577.683,880.15
577.817,881.65
577.951,882.3
578.085,885.95
578.218,887.95
578.352,881.95
578.486,879.05
578.62,879.3
578.754,881.5
578.888,880.2
579.022,880.45
579.156,878.2
579.29,881.45
579.424,878.75
579.557,881.3
579.691,881.1
579.825,883.0
579.959,882.6
580.093,881.3
580.227,882.6
580.361,885.05
580.494,887.05
580.628,889.05
580.762,897.7
580.896,916.55
581.03,960.6
581.164,1017.8
581.297,983.7
581.431,955.85
581.565,1011.0
581.699,1153.55
581.832,1244.05
581.966,1128.3
582.1,984.1
582.234,924.55
582.368,903.25
582.501,898.0
582.635,892.35
582.769,888.75
582.903,885.65
583.036,885.45
583.17,884.7
583.304,883.75
583.437,881.15
583.571,882.15
583.705,881.6
583.838,881.0
583.972,881.05
584.106,880.75
584.24,881.1
584.373,880.15
584.507,882.95
584.641,883.3
584.774,880.8
584.908,879.85
585.041,880.5
585.175,878.45
585.309,875.35
585.442,877.3
585.576,877.2
585.71,877.6
585.843,878.7
585.977,878.05
586.11,877.3
586.244,877.5
586.378,878.25
586.511,878.0
586.645,878.45
586.778,878.75
586.912,877.35
587.045,878.85
587.179,877.9
587.313,879.3
587.446,877.25
587.58,877.6
587.713,877.9
587.847,878.45
587.98,877.7
588.114,877.75
588.247,877.35
588.381,877.3
588.514,876.75
588.648,879.0
588.781,880.1
588.915,879.65
589.048,878.75
589.182,877.35
589.315,878.95
589.449,877.05
589.582,877.3
589.715,877.1
589.849,876.35
589.982,878.8
590.116,875.7
590.249,877.15
590.383,877.75
590.516,875.65
590.649,876.9
590.783,877.7
590.916,876.05
591.05,875.8
591.183,878.3
591.316,878.4
591.45,875.15
591.583,877.1
591.717,875.75
591.85,875.25
591.983,877.35
592.117,876.0
592.25,876.1
592.383,876.45
592.517,877.25
592.65,875.5
592.783,877.4
592.917,879.25
593.05,877.35
593.183,877.65
593.317,876.9
593.45,879.6
593.583,877.55
593.717,877.15
593.85,879.6
593.983,877.35
594.116,878.7
594.25,877.85
594.383,877.5
594.516,878.15
594.649,876.45
594.783,877.65
594.916,877.3
595.049,879.1
595.182,877.85
595.316,876.5
595.449,877.6
595.582,877.2
595.715,877.35
595.849,878.6
595.982,877.5
596.115,880.1
596.248,878.7
596.381,879.55
596.514,877.0
596.648,878.3
596.781,878.8
596.914,878.8
597.047,878.35
597.18,880.2
597.313,879.55
597.447,879.85
597.58,878.9
597.713,878.8
597.846,878.25
597.979,877.6
598.112,880.15
598.245,878.2
598.379,880.4
598.512,879.35
598.645,876.95
598.778,880.7
598.911,880.4
599.044,880.65
599.177,879.0
599.31,880.1
599.443,881.45
599.576,880.5
599.709,880.95
599.842,880.9
599.975,880.9
600.109,882.15
600.242,879.35
600.375,880.3
600.508,880.75
600.641,881.4
600.774,880.7
600.907,879.55
601.04,882.4
601.173,879.6
601.306,881.45
601.439,884.45
601.572,882.9
601.705,881.4
601.838,881.95
601.971,881.8
602.104,883.55
602.237,882.75
602.37,882.2
602.503,883.25
602.636,884.45
602.768,885.5
602.901,884.9
603.034,883.45
603.167,885.7
603.3,884.2
603.433,885.35
603.566,888.55
603.699,884.8
603.832,884.35
603.965,886.1
604.098,884.1
604.231,884.85
604.364,885.9
604.496,882.95
604.629,885.6
604.762,886.1
604.895,884.85
605.028,885.85
605.161,885.35
605.294,884.75
605.427,886.05
605.559,884.35
605.692,885.2
605.825,885.8
605.958,883.85
606.091,885.2
606.224,886.45
606.356,885.2
606.489,888.4
606.622,889.1
606.755,889.2
606.888,890.75
607.02,888.35
607.153,886.8
607.286,887.55
607.419,887.8
607.552,888.25
607.684,888.1
607.817,888.35
607.95,891.25
608.083,890.1
608.215,891.6
608.348,892.4
608.481,889.8
608.614,893.05
608.746,894.1
608.879,893.35
609.012,892.1
609.145,892.55
609.277,891.7
609.41,893.05
609.543,891.65
609.675,892.5
609.808,892.85
609.941,895.7
610.074,894.45
610.206,894.1
610.339,892.2
610.472,893.0
610.604,896.7
610.737,892.6
610.87,894.35
611.002,893.35
611.135,896.65
611.268,894.2
611.4,895.1
611.533,898.6
611.666,898.1
611.798,900.1
611.931,900.4
612.063,898.9
612.196,900.6
612.329,899.7
612.461,901.25
612.594,902.1
612.727,902.0
612.859,901.5
612.992,902.65
613.124,901.35
613.257,907.4
613.39,901.95
613.522,899.9
613.655,903.7
613.787,904.0
613.92,903.6
614.052,903.55
614.185,905.65
614.317,903.05
614.45,905.25
614.583,906.2
614.715,906.9
614.848,903.8
614.98,905.25
615.113,904.35
615.245,902.5
615.378,906.1
615.51,905.45
615.643,905.2
615.775,909.65
615.908,906.05
616.04,908.1
616.173,910.15
616.305,912.1
616.438,909.65
616.57,912.45
616.703,912.05
616.835,912.9
616.968,914.95
617.1,915.7
617.233,917.7
617.365,915.65
617.498,917.2
617.63,917.65
617.762,919.05
617.895,920.15
618.027,920.25
618.16,920.85
618.292,921.75
618.425,918.8
618.557,919.65
618.689,916.0
618.822,921.15
618.954,916.65
619.087,917.15
619.219,916.15
619.351,917.75
619.484,918.25
619.616,920.0
619.749,918.55
619.881,918.05
620.013,918.0
620.146,915.6
620.278,916.3
620.41,916.55
620.543,918.45
620.675,918.45
620.808,918.7
620.94,919.15
621.072,919.25
621.205,918.8
621.337,918.65
621.469,917.8
621.602,918.45
621.734,917.85
621.866,920.4
621.998,921.05
622.131,920.6
622.263,922.8
622.395,924.3
622.528,922.15
622.66,922.65
622.792,922.35
622.925,924.8
623.057,923.9
623.189,921.15
623.321,922.15
623.454,923.9
623.586,921.85
623.718,924.7
623.85,922.7
623.983,920.25
624.115,923.8
624.247,925.55
624.379,926.35
624.512,929.5
624.644,932.25
624.776,926.6
624.908,924.95
625.041,928.15
625.173,920.75
625.305,924.9
625.437,927.35
625.569,926.4
625.702,929.85
625.834,928.95
625.966,929.95
626.098,928.85
626.23,931.95
626.363,932.4
626.495,935.35
626.627,941.35
626.759,953.9
626.891,975.15
627.024,1008.05
627.156,1046.3
627.288,1069.8
627.42,1085.45
627.552,1077.0
627.684,1062.9
627.816,1042.0
627.949,1034.05
628.081,1024.8
628.213,1026.05
628.345,1035.7
628.477,1048.6
628.609,1068.8
628.741,1092.0
628.874,1119.75
629.006,1151.25
629.138,1183.65
629.27,1204.4
629.402,1221.2
629.534,1220.75
629.666,1222.05
629.798,1209.45
629.93,1195.55
630.062,1179.35
630.195,1156.05
630.327,1137.65
630.459,1125.7
630.591,1104.5
630.723,1085.7
630.855,1068.95
630.987,1049.5
631.119,1030.5
631.251,1018.7
631.383,1003.2
631.515,992.2
631.647,992.35
631.779,988.15
631.911,989.4
632.043,990.05
632.175,1002.15
632.307,1019.55
632.439,1026.3
632.571,1013.85
632.703,984.45
632.835,974.0
632.967,974.55
633.099,983.0
633.231,1012.2
633.363,1027.7
633.495,1022.9
633.627,995.7
633.759,981.35
633.891,985.05
634.023,997.35
634.155,1023.05
634.287,1064.2
634.419,1114.0
634.551,1173.15
634.683,1228.45
634.815,1259.05
634.947,1278.05
635.079,1332.8
635.211,1473.65
635.343,1664.25
635.475,1727.25
635.607,1710.8
635.739,1681.5
635.871,1586.4
636.003,1459.65
636.135,1315.15
636.267,1204.15
636.398,1124.05
636.53,1078.4
636.662,1050.25
636.794,1026.8
636.926,1011.6
637.058,994.45
637.19,981.25
637.322,977.3
637.454,977.2
637.586,975.0
637.717,971.95
637.849,962.2
637.981,956.1
638.113,957.3
638.245,956.3
638.377,953.55
638.509,950.9
638.641,947.9
638.773,947.6
638.904,947.45
639.036,950.35
639.168,948.45
639.3,948.65
639.432,951.05
639.564,954.35
639.695,958.1
639.827,967.6
639.959,972.5
640.091,963.95
640.223,957.3
640.355,952.1
640.486,948.9
640.618,948.1
640.75,950.6
640.882,950.3
641.014,949.4
641.146,957.3
641.277,960.2
641.409,965.5
641.541,966.4
641.673,963.0
641.805,957.2
641.936,949.35
642.068,947.05
642.2,946.5
642.332,942.45
642.464,942.85
642.595,941.45
642.727,943.5
642.859,940.15
642.991,943.2
643.122,942.35
643.254,941.75
643.386,940.0
643.518,941.15
643.649,940.35
643.781,940.55
643.913,938.65
644.045,940.95
644.176,939.55
644.308,939.4
644.44,940.35
644.572,940.3
644.703,938.6
644.835,941.25
644.967,939.65
645.099,940.95
645.23,939.9
645.362,938.8
645.494,943.35
645.625,940.95
645.757,941.0
645.889,942.05
646.021,941.85
646.152,940.05
646.284,937.85
646.416,940.1
646.547,942.25
646.679,942.95
646.811,941.7
646.942,940.9
647.074,943.35
647.206,941.9
647.337,942.7
647.469,942.7
647.601,944.0
647.732,942.35
647.864,941.05
647.996,942.1
648.127,942.35
648.259,943.9
648.391,942.7
648.522,945.2
648.654,942.75
648.786,942.75
648.917,942.55
649.049,944.85
649.181,942.8
649.312,944.0
649.444,943.5
649.576,945.75
649.707,946.45
649.839,942.3
649.971,943.7
650.102,946.3
650.234,948.2
650.365,945.55
650.497,945.75
650.629,943.4
650.76,945.7
650.892,945.2
651.023,947.4
651.155,944.1
651.287,944.9
651.418,945.2
651.55,946.65
651.682,947.2
651.813,944.9
651.945,944.55
652.076,946.25
652.208,947.75
652.339,946.9
652.471,947.65
652.603,949.6
652.734,950.15
652.866,949.8
652.997,946.85
653.129,946.15
653.261,951.65
653.392,947.5
653.524,946.8
653.655,948.5
653.787,946.55
653.918,950.2
654.05,948.15
654.181,948.0
654.313,947.85
654.445,949.0
654.576,947.45
654.708,950.6
654.839,947.55
654.971,948.3
655.102,951.1
655.234,948.25
655.365,948.85
655.497,950.55
655.628,952.65
655.76,950.35
655.892,954.7
656.023,948.85
656.155,949.55
656.286,949.1
656.418,949.4
656.549,950.2
656.681,950.8
656.812,951.3
656.944,951.15
657.075,949.9
657.207,951.35
657.338,951.25
657.47,952.8
657.601,951.3
657.733,950.25
657.864,949.8
657.996,951.7
658.127,955.7
658.259,951.9
658.39,952.15
658.522,953.2
658.653,954.9
658.785,954.4
658.916,953.25
659.048,953.45
659.179,954.45
659.311,955.35
659.442,955.1
659.574,952.4
659.705,951.7
659.836,956.95
659.968,957.1
660.099,957.75
660.231,953.2
660.362,953.0
660.494,954.05
660.625,955.45
660.757,955.65
660.888,953.4
661.02,952.6
661.151,952.65
661.283,955.4
661.414,953.0
661.545,954.5
661.677,953.9
661.808,953.8
661.94,953.25
662.071,957.65
662.203,952.75
662.334,954.25
662.466,953.65
662.597,954.0
662.728,955.55
662.86,951.35
662.991,955.25
663.123,953.8
