nm,Intensity
526.549,829.42
526.686,829.12
526.823,828.74
526.96,828.96
527.096,829.64
527.233,828.6
527.37,829.32
527.507,828.94
527.643,828.9
527.78,829.34
527.917,829.32
528.053,829.02
528.19,828.86
528.327,828.54
528.463,829.04
528.6,829.1
528.737,828.26
528.873,829.36
529.01,828.84
529.146,829.54
529.283,828.2
529.42,829.4
529.556,829.12
529.693,828.9
529.829,828.48
529.966,828.68
530.102,829.58
530.239,829.12
530.375,829.6
530.512,829.14
530.648,829.02
530.785,829.1
530.921,828.86
531.058,829.62
531.194,829.32
531.331,828.4
531.467,829.1
531.604,828.92
531.74,828.52
531.877,828.78
532.013,830.5
532.149,847.12
532.286,855.12
532.422,835.84
532.559,828.8
532.695,829.28
532.831,828.3
532.968,828.76
533.104,828.98
533.24,828.68
533.377,829.2
533.513,829.18
533.649,829.88
533.786,834.74
533.922,860.04
534.058,902.74
534.194,929.14
534.331,929.52
534.467,926.82
534.603,928.5
534.739,930.58
534.876,930.6
535.012,927.36
535.148,923.84
535.284,924.32
535.42,923.8
535.557,926.3
535.693,924.9
535.829,924.24
535.965,923.72
536.101,924.0
536.237,924.82
536.374,924.64
536.51,922.34
536.646,922.92
536.782,922.18
536.918,923.3
537.054,921.58
537.19,922.92
537.326,922.0
537.462,922.88
537.598,924.82
537.734,924.2
537.87,924.56
538.007,924.96
538.143,924.82
538.279,924.6
538.415,924.84
538.551,925.46
538.687,925.82
538.823,923.18
538.959,924.56
539.094,926.74
539.23,925.48
539.366,922.52
539.502,925.6
539.638,922.44
539.774,922.64
539.91,922.66
540.046,922.1
540.182,920.82
540.318,920.74
540.454,921.22
540.59,920.98
540.725,920.54
540.861,920.52
540.997,921.62
541.133,919.74
541.269,919.4
541.405,921.46
541.54,920.2
541.676,920.84
541.812,920.02
541.948,919.76
542.084,921.02
542.219,921.56
542.355,922.84
542.491,920.76
542.627,920.76
542.762,920.72
542.898,923.38
543.034,921.82
543.17,921.42
543.305,922.96
543.441,921.66
543.577,920.76
543.712,923.26
543.848,923.18
543.984,922.68
544.119,924.34
544.255,923.88
544.391,927.5
544.526,925.42
544.662,928.12
544.798,929.36
544.933,931.5
545.069,930.68
545.204,932.22
545.34,933.42
545.476,932.06
545.611,928.06
545.747,927.14
545.882,924.52
546.018,925.44
546.153,923.22
546.289,923.2
546.425,920.74
546.56,921.94
546.696,922.08
546.831,923.16
546.967,922.08
547.102,922.12
547.238,922.46
547.373,921.12
547.509,921.12
547.644,921.56
547.779,921.4
547.915,921.1
548.05,921.92
548.186,922.74
548.321,923.16
548.457,922.6
548.592,924.02
548.727,922.26
548.863,923.02
548.998,924.78
549.134,923.22
549.269,926.26
549.404,928.7
549.54,931.08
549.675,929.76
549.81,930.54
549.946,930.96
550.081,928.54
550.216,928.9
550.352,930.26
550.487,927.54
550.622,924.96
550.758,924.44
550.893,924.52
551.028,924.84
551.163,923.74
551.299,922.6
551.434,921.44
551.569,922.8
551.704,924.78
551.84,923.06
551.975,923.16
552.11,926.56
552.245,929.76
552.38,924.52
552.516,921.98
552.651,923.64
552.786,923.24
552.921,920.42
553.056,921.82
553.191,921.18
553.327,922.82
553.462,923.36
553.597,925.22
553.732,921.02
553.867,922.34
554.002,923.94
554.137,922.76
554.272,924.0
554.408,923.32
554.543,922.84
554.678,924.52
554.813,921.18
554.948,922.52
555.083,921.58
555.218,922.14
555.353,923.44
555.488,923.08
555.623,921.98
555.758,924.4
555.893,923.44
556.028,922.54
556.163,923.72
556.298,923.12
556.433,922.62
556.568,921.92
556.703,924.52
556.838,924.86
556.973,925.4
557.108,926.4
557.243,926.4
557.378,924.82
557.513,925.24
557.648,923.36
557.783,923.56
557.917,924.28
558.052,922.6
558.187,924.04
558.322,923.62
558.457,923.08
558.592,923.12
558.727,923.78
558.862,922.38
558.996,922.8
559.131,923.66
559.266,923.74
559.401,921.88
559.536,922.22
559.671,923.6
559.805,923.38
559.94,922.92
560.075,923.56
560.21,924.88
560.345,923.52
560.479,925.68
560.614,926.18
560.749,927.06
560.884,924.22
561.018,922.66
561.153,924.94
561.288,924.02
561.423,923.44
561.557,924.64
561.692,923.72
561.827,924.6
561.962,923.46
562.096,923.82
562.231,924.08
562.366,926.88
562.5,924.02
562.635,925.72
562.77,926.9
562.904,928.42
563.039,927.44
563.174,928.72
563.308,929.2
563.443,932.94
563.577,932.3
563.712,931.16
563.847,935.8
563.981,943.5
564.116,956.14
564.25,950.2
564.385,938.66
564.52,935.74
564.654,939.82
564.789,937.2
564.923,938.08
565.058,938.92
565.192,934.62
565.327,934.82
565.461,935.28
565.596,934.0
565.731,935.56
565.865,936.66
566.0,943.0
566.134,953.92
566.269,958.44
566.403,948.94
566.538,940.4
566.672,937.68
566.806,936.74
566.941,933.98
567.075,935.66
567.21,933.9
567.344,934.6
567.479,936.82
567.613,936.28
567.748,935.18
567.882,934.26
568.016,935.74
568.151,934.6
568.285,935.98
568.42,934.7
568.554,936.0
568.688,935.96
568.823,936.82
568.957,937.3
569.091,939.06
569.226,936.76
569.36,937.66
569.494,938.18
569.629,938.12
569.763,938.54
569.897,939.18
570.032,939.18
570.166,938.16
570.3,937.52
570.435,940.08
570.569,939.4
570.703,941.88
570.837,943.26
570.972,943.3
571.106,942.42
571.24,945.04
571.375,951.14
571.509,967.02
571.643,991.0
571.777,970.26
571.911,958.64
572.046,956.84
572.18,954.06
572.314,948.9
572.448,948.6
572.582,949.26
572.717,948.52
572.851,948.82
572.985,956.0
573.119,959.68
573.253,955.32
573.388,951.82
573.522,947.32
573.656,948.1
573.79,949.88
573.924,950.78
574.058,953.12
574.192,950.66
574.326,949.22
574.461,950.34
574.595,949.04
574.729,948.48
574.863,948.9
574.997,949.64
575.131,951.36
575.265,951.74
575.399,952.48
575.533,960.08
575.667,963.46
575.801,963.84
575.935,965.18
576.069,970.28
576.203,983.0
576.337,996.7
576.472,997.24
576.606,991.94
576.74,994.16
576.874,994.24
577.008,985.64
577.142,981.16
577.276,977.52
577.409,972.8
577.543,970.78
577.677,966.0
577.811,963.4
577.945,961.44
578.079,962.88
578.213,958.96
578.347,961.08
578.481,962.86
578.615,961.36
578.749,961.74
578.883,964.98
579.017,966.96
579.151,971.48
579.285,987.3
579.418,992.66
579.552,978.02
579.686,969.42
579.82,967.18
579.954,966.52
580.088,967.08
580.222,967.46
580.356,966.66
580.489,965.66
580.623,965.54
580.757,966.28
580.891,969.08
581.025,965.28
581.158,967.42
581.292,969.14
581.426,969.84
581.56,970.6
581.694,971.4
581.827,970.82
581.961,971.22
582.095,971.16
582.229,969.32
582.363,973.18
582.496,972.94
582.63,973.92
582.764,973.02
582.898,974.22
583.031,974.1
583.165,974.84
583.299,975.24
583.432,973.48
583.566,974.82
583.7,975.2
583.834,975.34
583.967,973.76
584.101,975.68
584.235,975.06
584.368,975.4
584.502,975.5
584.636,976.02
584.769,975.04
584.903,976.04
585.037,975.42
585.17,979.56
585.304,977.22
585.438,978.04
585.571,978.26
585.705,980.2
585.838,980.7
585.972,980.84
586.106,981.96
586.239,980.6
586.373,985.0
586.506,984.52
586.64,985.22
586.774,984.64
586.907,985.92
587.041,984.04
587.174,984.76
587.308,984.0
587.441,988.5
587.575,986.72
587.708,985.54
587.842,985.38
587.976,988.44
588.109,986.74
588.243,989.8
588.376,988.24
588.51,988.7
588.643,988.06
588.777,989.12
588.91,985.4
589.044,989.16
589.177,988.08
589.311,990.72
589.444,992.26
589.577,989.94
589.711,989.26
589.844,991.9
589.978,991.36
590.111,993.66
590.245,994.4
590.378,992.0
590.512,995.26
590.645,993.96
590.778,995.96
590.912,996.06
591.045,994.28
591.179,996.36
591.312,996.28
591.445,999.66
591.579,996.04
591.712,997.76
591.846,997.22
591.979,995.66
592.112,997.46
592.246,998.04
592.379,996.1
592.512,997.62
592.646,997.74
592.779,1000.66
592.912,998.0
593.046,999.54
593.179,999.18
593.312,1000.9
593.446,1000.94
593.579,1000.32
593.712,1003.48
593.846,1000.8
593.979,1002.8
594.112,1001.8
594.245,1001.08
594.379,1001.68
594.512,1002.64
594.645,1005.38
594.778,1005.48
594.912,1003.92
595.045,1007.32
595.178,1006.0
595.311,1009.38
595.445,1009.38
595.578,1009.52
595.711,1008.48
595.844,1013.42
595.978,1010.72
596.111,1011.46
596.244,1015.66
596.377,1015.16
596.51,1013.62
596.643,1017.38
596.777,1019.26
596.91,1018.16
597.043,1021.78
597.176,1020.8
597.309,1022.72
597.443,1022.52
597.576,1021.48
597.709,1024.3
597.842,1025.14
597.975,1026.04
598.108,1028.58
598.241,1029.26
598.374,1032.12
598.508,1030.2
598.641,1031.56
598.774,1031.26
598.907,1034.12
599.04,1032.06
599.173,1033.34
599.306,1036.54
599.439,1036.22
599.572,1035.48
599.705,1037.0
599.838,1034.42
599.972,1036.08
600.105,1035.7
600.238,1040.22
600.371,1036.42
600.504,1035.74
600.637,1037.46
600.77,1034.26
600.903,1035.92
601.036,1035.78
601.169,1036.0
601.302,1036.48
601.435,1034.92
601.568,1034.22
601.701,1031.8
601.834,1034.24
601.967,1034.02
602.1,1033.22
602.233,1033.94
602.366,1032.94
602.499,1033.08
602.632,1033.02
602.765,1031.4
602.898,1034.9
603.031,1031.36
603.164,1029.26
603.296,1031.3
603.429,1028.62
603.562,1027.24
603.695,1026.92
603.828,1026.02
603.961,1024.24
604.094,1022.78
604.227,1021.64
604.36,1021.92
604.493,1020.16
604.626,1018.92
604.758,1017.8
604.891,1015.68
605.024,1012.62
605.157,1015.46
605.29,1012.26
605.423,1012.98
605.556,1007.4
605.689,1005.7
605.821,1004.86
605.954,1004.7
606.087,1006.4
606.22,1003.3
606.353,999.58
606.486,1001.74
606.618,1000.36
606.751,998.92
606.884,997.72
607.017,999.44
607.15,997.7
607.282,997.48
607.415,996.58
607.548,993.98
607.681,997.86
607.814,996.02
607.946,993.6
608.079,992.1
608.212,995.64
608.345,992.36
608.477,991.22
608.61,991.56
608.743,988.24
608.876,992.4
609.008,990.92
609.141,989.56
609.274,987.62
609.407,986.06
609.539,987.46
609.672,988.22
609.805,986.26
609.937,985.32
610.07,986.44
610.203,985.76
610.335,984.12
610.468,985.6
610.601,984.2
610.734,984.18
610.866,981.38
610.999,981.7
611.132,981.72
611.264,980.38
611.397,981.78
611.529,979.6
611.662,980.66
611.795,980.82
611.927,981.34
612.06,980.0
612.193,979.3
612.325,979.3
612.458,980.16
612.591,979.02
612.723,980.14
612.856,979.52
612.988,980.04
613.121,979.44
613.254,981.86
613.386,981.08
613.519,980.7
613.651,979.64
613.784,979.98
613.916,978.22
614.049,979.52
614.182,979.54
614.314,980.28
614.447,980.22
614.579,978.26
614.712,977.56
614.844,975.62
614.977,975.54
615.109,976.48
615.242,977.14
615.374,974.0
615.507,975.72
615.639,973.18
615.772,977.58
615.904,974.08
616.037,974.18
616.169,973.46
616.302,973.52
616.434,972.42
616.567,970.5
616.699,974.32
616.832,973.32
616.964,972.48
617.097,971.86
617.229,974.62
617.362,974.54
617.494,974.16
617.627,970.48
617.759,974.56
617.892,971.52
618.024,974.76
618.156,975.28
618.289,974.48
618.421,974.26
618.554,971.7
618.686,972.68
618.819,974.82
618.951,971.42
619.083,972.4
619.216,973.16
619.348,969.74
619.481,970.42
619.613,969.04
619.745,970.52
619.878,971.7
620.01,970.96
620.142,968.66
620.275,970.12
620.407,971.48
620.54,971.72
620.672,972.46
620.804,970.54
620.937,967.44
621.069,969.58
621.201,969.48
621.334,972.18
621.466,971.76
621.598,971.4
621.731,973.76
621.863,976.22
621.995,977.56
622.128,980.68
622.26,981.2
622.392,981.64
622.524,979.94
622.657,976.9
622.789,976.7
622.921,971.44
623.054,970.64
623.186,971.8
623.318,971.7
623.45,968.78
623.583,969.66
623.715,966.1
623.847,969.16
623.979,967.74
624.112,966.46
624.244,967.74
624.376,967.26
624.508,965.64
624.641,968.54
624.773,967.2
624.905,968.4
625.037,967.4
625.17,967.2
625.302,967.9
625.434,969.1
625.566,967.58
625.698,968.22
625.831,969.64
625.963,973.22
626.095,972.82
626.227,974.2
626.359,976.06
626.492,982.62
626.624,992.22
626.756,1010.66
626.888,1043.28
627.02,1094.08
627.152,1155.1
627.285,1185.92
627.417,1182.36
627.549,1150.7
627.681,1125.36
627.813,1108.74
627.945,1096.48
628.077,1090.98
628.21,1094.26
628.342,1114.1
628.474,1163.7
628.606,1225.82
628.738,1205.56
628.87,1144.56
629.002,1116.24
629.134,1101.46
629.267,1099.8
629.399,1089.62
629.531,1079.96
629.663,1070.02
629.795,1059.12
629.927,1052.26
630.059,1046.1
630.191,1045.3
630.323,1044.18
630.455,1043.3
630.587,1040.76
630.719,1031.94
630.851,1024.18
630.984,1014.64
631.116,1003.58
631.248,990.74
631.38,982.0
631.512,978.78
631.644,976.56
631.776,975.34
631.908,974.28
632.04,969.92
632.172,970.36
632.304,969.24
632.436,966.34
632.568,967.78
632.7,965.16
632.832,965.44
632.964,963.3
633.096,961.54
633.228,963.9
633.36,963.66
633.492,962.68
633.624,961.3
633.756,959.2
633.888,960.12
634.02,961.58
634.152,960.22
634.284,960.88
634.416,959.96
634.548,958.88
634.68,958.36
634.812,959.26
634.944,957.5
635.076,958.38
635.207,957.92
635.339,958.74
635.471,957.1
635.603,958.58
635.735,959.5
635.867,959.42
635.999,959.86
636.131,958.46
636.263,959.46
636.395,957.8
636.527,957.32
636.659,958.16
636.791,957.28
636.922,957.4
637.054,955.06
637.186,956.9
637.318,957.98
637.45,954.12
637.582,957.84
637.714,954.8
637.846,954.9
637.977,958.48
638.109,954.64
638.241,956.56
638.373,956.18
638.505,955.4
638.637,954.98
638.769,956.74
638.901,955.32
639.032,955.64
639.164,955.58
639.296,955.88
639.428,955.06
639.56,955.96
639.692,955.96
639.823,956.64
639.955,954.52
640.087,955.58
640.219,956.46
640.351,955.44
640.482,955.72
640.614,954.92
640.746,954.92
640.878,957.28
641.01,956.02
641.142,953.08
641.273,955.38
641.405,955.98
641.537,955.1
641.669,956.18
641.8,955.6
641.932,954.94
642.064,954.32
642.196,954.62
642.328,957.54
642.459,954.42
642.591,954.18
642.723,957.34
642.855,954.5
642.986,954.28
643.118,955.86
643.25,956.62
643.382,955.46
643.513,954.92
643.645,954.32
643.777,954.3
643.909,952.66
644.04,952.06
644.172,953.22
644.304,952.2
644.435,952.28
644.567,953.36
644.699,952.66
644.831,952.84
644.962,951.88
645.094,952.66
645.226,951.64
645.357,950.08
645.489,951.5
645.621,952.38
645.753,951.08
645.884,951.8
646.016,950.8
646.148,953.22
646.279,951.9
646.411,953.02
646.543,951.6
646.674,951.74
646.806,952.34
646.938,950.8
647.069,952.08
647.201,952.3
647.333,952.06
647.464,953.1
647.596,952.96
647.728,953.36
647.859,953.9
647.991,952.36
648.123,951.18
648.254,953.26
648.386,951.4
648.517,951.16
648.649,950.66
648.781,954.32
648.912,952.1
649.044,953.98
649.176,952.08
649.307,951.76
649.439,950.44
649.57,952.9
649.702,951.64
649.834,953.2
649.965,951.78
650.097,952.06
650.228,951.88
650.36,951.84
650.492,951.74
650.623,952.22
650.755,951.16
650.886,951.0
651.018,952.18
651.15,951.48
651.281,950.94
651.413,953.32
651.544,951.78
651.676,951.12
651.808,952.24
651.939,953.1
652.071,953.86
652.202,954.46
652.334,952.94
652.465,953.32
652.597,954.4
652.728,952.82
652.86,954.54
652.992,952.26
653.123,952.48
653.255,954.38
653.386,953.88
653.518,954.86
653.649,952.5
653.781,955.44
653.912,955.14
654.044,954.6
654.175,953.44
654.307,952.7
654.438,951.3
654.57,954.16
654.701,955.06
654.833,951.18
654.965,952.98
655.096,954.44
655.228,953.04
655.359,951.22
655.491,952.24
655.622,949.8
655.754,951.28
655.885,951.24
656.017,950.8
656.148,949.06
656.28,949.72
656.411,949.74
656.542,950.26
656.674,951.88
656.805,950.84
656.937,951.08
657.068,949.56
657.2,950.78
657.331,949.68
657.463,949.16
657.594,949.12
657.726,949.8
657.857,948.76
657.989,949.32
658.12,946.48
658.252,948.42
658.383,948.06
658.515,948.42
658.646,945.56
658.777,943.82
658.909,947.12
659.04,944.92
659.172,945.0
659.303,944.34
659.435,944.38
659.566,943.68
659.698,942.64
659.829,944.22
659.96,943.06
660.092,941.34
660.223,944.76
660.355,941.36
660.486,941.42
660.618,940.22
660.749,940.04
660.88,938.76
661.012,939.86
661.143,940.1
661.275,935.96
661.406,936.28
661.537,937.5
661.669,935.22
661.8,935.72
661.932,935.36
662.063,936.12
662.194,934.92
662.326,933.74
662.457,933.5
662.589,933.04
662.72,932.04
662.851,932.58
662.983,931.14
663.114,931.62
