nm,Intensity
526.547,831.45
526.684,830.4
526.821,831.0
526.958,830.7
527.095,832.1
527.232,830.5
527.368,831.8
527.505,831.25
527.642,831.1
527.779,831.7
527.916,831.55
528.052,830.55
528.189,831.95
528.326,830.35
528.463,831.2
528.599,831.7
528.736,831.05
528.873,831.65
529.009,832.05
529.146,831.05
529.283,831.1
529.419,830.75
529.556,831.15
529.693,830.95
529.829,831.9
529.966,830.3
530.103,830.8
530.239,831.05
530.376,832.2
530.512,830.25
530.649,831.45
530.785,831.5
530.922,831.35
531.059,831.8
531.195,830.6
531.332,830.7
531.468,830.35
531.605,831.65
531.741,829.6
531.878,830.95
532.014,836.85
532.151,862.95
532.287,856.95
532.423,835.25
532.56,831.55
532.696,830.9
532.833,831.45
532.969,831.5
533.106,830.0
533.242,831.95
533.378,831.6
533.515,834.75
533.651,861.9
533.787,1081.45
533.924,1922.45
534.06,2924.0
534.196,3246.6
534.333,3149.05
534.469,2964.0
534.605,2806.2
534.742,2622.3
534.878,2412.05
535.014,2171.3
535.15,1957.3
535.287,1791.05
535.423,1628.15
535.559,1510.55
535.695,1407.4
535.832,1315.4
535.968,1249.45
536.104,1198.35
536.24,1166.4
536.376,1133.15
536.513,1115.3
536.649,1099.3
536.785,1091.5
536.921,1081.45
537.057,1070.7
537.193,1060.85
537.329,1057.0
537.465,1046.65
537.602,1035.5
537.738,1037.75
537.874,1038.55
538.01,1042.95
538.146,1053.85
538.282,1070.9
538.418,1078.15
538.554,1080.75
538.69,1075.75
538.826,1045.15
538.962,1009.55
539.098,976.2
539.234,946.9
539.37,931.25
539.506,923.05
539.642,918.7
539.778,918.7
539.914,914.05
540.05,911.75
540.186,910.55
540.322,907.1
540.458,902.55
540.594,902.2
540.729,897.65
540.865,894.0
541.001,892.4
541.137,891.6
541.273,894.9
541.409,893.65
541.545,893.55
541.68,892.85
541.816,896.6
541.952,892.8
542.088,894.45
542.224,892.75
542.36,891.2
542.495,891.3
542.631,889.05
542.767,889.65
542.903,890.75
543.038,897.25
543.174,899.35
543.31,902.9
543.446,905.75
543.581,906.6
543.717,911.2
543.853,916.75
543.988,916.8
544.124,911.25
544.26,905.55
544.395,899.3
544.531,897.2
544.667,893.4
544.802,890.35
544.938,887.6
545.074,887.6
545.209,886.65
545.345,882.4
545.481,880.95
545.616,879.1
545.752,880.25
545.887,879.5
546.023,875.5
546.158,874.6
546.294,875.6
546.43,874.5
546.565,875.5
546.701,877.1
546.836,875.1
546.972,874.55
547.107,878.0
547.243,876.35
547.378,876.0
547.514,878.85
547.649,882.1
547.785,884.6
547.92,888.95
548.056,885.3
548.191,885.9
548.326,886.1
548.462,884.1
548.597,883.6
548.733,882.4
548.868,882.6
549.004,879.95
549.139,877.15
549.274,876.35
549.41,875.55
549.545,874.55
549.68,874.2
549.816,874.6
549.951,877.85
550.086,886.1
550.222,931.9
550.357,1014.2
550.492,981.9
550.628,908.3
550.763,882.55
550.898,874.5
551.034,869.3
551.169,868.95
551.304,865.55
551.439,864.75
551.575,867.15
551.71,865.35
551.845,866.2
551.98,864.7
552.116,866.35
552.251,863.75
552.386,866.55
552.521,865.85
552.656,867.3
552.792,870.2
552.927,870.35
553.062,868.25
553.197,865.55
553.332,866.7
553.467,866.45
553.603,870.5
553.738,874.6
553.873,886.65
554.008,897.6
554.143,905.45
554.278,911.9
554.413,922.25
554.548,931.35
554.683,929.8
554.819,927.55
554.954,921.35
555.089,912.3
555.224,918.35
555.359,929.75
555.494,957.55
555.629,984.35
555.764,998.15
555.899,972.45
556.034,936.35
556.169,915.45
556.304,902.15
556.439,890.7
556.574,879.4
556.709,880.7
556.844,883.85
556.979,898.3
557.114,905.75
557.249,900.9
557.384,895.0
557.519,889.25
557.653,887.3
557.788,882.65
557.923,883.95
558.058,883.85
558.193,882.55
558.328,882.5
558.463,880.85
558.598,882.0
558.733,882.7
558.867,890.3
559.002,896.0
559.137,899.25
559.272,896.05
559.407,884.75
559.542,878.9
559.677,876.6
559.811,876.35
559.946,874.1
560.081,872.75
560.216,877.8
560.351,878.45
560.485,877.2
560.62,879.6
560.755,879.2
560.89,882.55
561.024,889.1
561.159,888.8
561.294,891.8
561.429,906.85
561.563,923.3
561.698,965.5
561.833,1038.5
561.967,1292.95
562.102,2016.8
562.237,2030.4
562.371,1274.25
562.506,975.35
562.641,922.25
562.775,946.5
562.91,1043.35
563.045,1202.85
563.179,1216.15
563.314,1076.7
563.449,973.85
563.583,930.05
563.718,920.5
563.853,916.0
563.987,913.5
564.122,917.75
564.256,924.0
564.391,924.0
564.525,923.9
564.66,919.25
564.795,919.5
564.929,919.4
565.064,919.7
565.198,918.2
565.333,915.0
565.467,901.9
565.602,895.2
565.736,889.85
565.871,882.5
566.005,878.0
566.14,876.5
566.274,875.8
566.409,880.2
566.543,885.45
566.678,898.1
566.812,926.4
566.947,974.9
567.081,1014.5
567.216,977.25
567.35,940.5
567.484,935.75
567.619,946.25
567.753,994.6
567.888,1060.7
568.022,1061.0
568.156,1047.3
568.291,1071.45
568.425,1089.35
568.56,1087.95
568.694,1052.9
568.828,1001.45
568.963,959.4
569.097,939.35
569.231,932.65
569.366,922.25
569.5,913.2
569.634,904.5
569.769,902.6
569.903,901.65
570.037,900.5
570.172,902.0
570.306,897.05
570.44,895.25
570.575,893.8
570.709,897.05
570.843,895.8
570.977,895.55
571.112,900.3
571.246,897.2
571.38,900.6
571.514,904.5
571.649,911.35
571.783,913.5
571.917,917.35
572.051,919.55
572.185,923.35
572.32,930.4
572.454,940.9
572.588,944.8
572.722,945.15
572.856,942.05
572.991,928.25
573.125,919.55
573.259,913.35
573.393,907.65
573.527,909.95
573.661,909.35
573.795,910.85
573.93,909.9
574.064,906.8
574.198,907.8
574.332,900.95
574.466,890.35
574.6,887.4
574.734,885.6
574.868,882.85
575.002,885.7
575.136,884.45
575.271,883.6
575.405,882.5
575.539,882.15
575.673,882.75
575.807,883.05
575.941,885.5
576.075,890.65
576.209,907.45
576.343,922.25
576.477,939.95
576.611,960.05
576.745,963.2
576.879,946.15
577.013,910.05
577.147,894.2
577.281,886.3
577.415,883.15
577.549,884.05
577.683,881.05
577.817,885.15
577.951,884.35
578.085,884.55
578.218,887.9
578.352,885.0
578.486,880.5
578.62,882.2
578.754,881.9
578.888,880.15
579.022,882.7
579.156,883.9
579.29,882.45
579.424,883.95
579.557,881.15
579.691,882.55
579.825,884.65
579.959,884.55
580.093,884.6
580.227,883.1
580.361,887.2
580.494,887.45
580.628,891.35
580.762,898.3
580.896,914.85
581.03,962.75
581.164,1013.4
581.297,983.05
581.431,955.85
581.565,1001.15
581.699,1137.75
581.832,1229.75
581.966,1122.0
582.1,981.95
582.234,926.75
582.368,907.6
582.501,898.5
582.635,892.35
582.769,890.95
582.903,886.85
583.036,884.7
583.17,883.75
583.304,884.65
583.437,883.0
583.571,880.35
583.705,881.3
583.838,880.9
583.972,880.1
584.106,882.9
584.24,884.05
584.373,883.55
584.507,884.05
584.641,881.75
584.774,882.2
584.908,881.7
585.041,881.35
585.175,879.55
585.309,879.55
585.442,878.9
585.576,877.7
585.71,879.55
585.843,880.15
585.977,879.25
586.11,879.5
586.244,880.3
586.378,879.25
586.511,879.65
586.645,879.0
586.778,878.6
586.912,877.7
587.045,877.95
587.179,878.1
587.313,878.8
587.446,879.25
587.58,879.85
587.713,878.05
587.847,878.15
587.98,877.4
588.114,880.85
588.247,879.0
588.381,879.8
588.514,879.2
588.648,877.95
588.781,880.1
588.915,881.05
589.048,877.05
589.182,878.05
589.315,878.0
589.449,877.85
589.582,877.65
589.715,876.9
589.849,877.9
589.982,878.75
590.116,876.55
590.249,876.9
590.383,876.8
590.516,878.4
590.649,876.65
590.783,876.1
590.916,876.8
591.05,876.8
591.183,874.75
591.316,876.5
591.45,878.2
591.583,876.2
591.717,877.1
591.85,879.05
591.983,879.25
592.117,878.1
592.25,874.65
592.383,875.5
592.517,877.0
592.65,876.75
592.783,879.75
592.917,878.35
593.05,880.2
593.183,877.2
593.317,878.55
593.45,876.75
593.583,876.9
593.717,875.9
593.85,877.55
593.983,878.8
594.116,878.4
594.25,877.8
594.383,877.65
594.516,878.25
594.649,877.35
594.783,876.4
594.916,875.5
595.049,878.25
595.182,875.55
595.316,876.5
595.449,877.85
595.582,877.65
595.715,876.4
595.849,876.05
595.982,878.3
596.115,875.6
596.248,876.3
596.381,878.35
596.514,876.75
596.648,876.4
596.781,877.45
596.914,877.95
597.047,878.3
597.18,876.7
597.313,876.9
597.447,875.65
597.58,877.65
597.713,876.0
597.846,878.95
597.979,878.05
598.112,878.6
598.245,879.3
598.379,881.8
598.512,880.7
598.645,879.55
598.778,880.2
598.911,879.0
599.044,879.75
599.177,879.45
599.31,881.4
599.443,879.1
599.576,878.2
599.709,880.9
599.842,879.65
599.975,879.85
600.109,879.45
600.242,877.9
600.375,881.75
600.508,880.9
600.641,878.3
600.774,881.1
600.907,881.4
601.04,879.6
601.173,880.55
601.306,879.35
601.439,877.65
601.572,880.4
601.705,881.35
601.838,881.7
601.971,881.1
602.104,881.0
602.237,882.0
602.37,880.4
602.503,879.55
602.636,882.0
602.768,884.5
602.901,881.4
603.034,883.45
603.167,882.15
603.3,882.05
603.433,882.3
603.566,883.75
603.699,882.3
603.832,882.35
603.965,883.95
604.098,882.6
604.231,882.85
604.364,880.75
604.496,881.9
604.629,883.85
604.762,881.8
604.895,881.35
605.028,881.9
605.161,881.05
605.294,884.95
605.427,882.6
605.559,881.55
605.692,883.1
605.825,883.35
605.958,882.7
606.091,883.85
606.224,885.6
606.356,884.3
606.489,883.15
606.622,885.75
606.755,885.1
606.888,885.65
607.02,885.5
607.153,885.4
607.286,883.35
607.419,886.35
607.552,887.3
607.684,887.15
607.817,887.55
607.95,887.4
608.083,887.45
608.215,888.4
608.348,888.3
608.481,887.5
608.614,890.9
608.746,891.3
608.879,893.4
609.012,889.8
609.145,891.3
609.277,889.8
609.41,888.35
609.543,890.65
609.675,892.0
609.808,890.2
609.941,890.05
610.074,890.3
610.206,893.75
610.339,890.0
610.472,890.65
610.604,892.35
610.737,891.2
610.87,892.2
611.002,895.0
611.135,891.15
611.268,891.8
611.4,894.45
611.533,897.55
611.666,896.75
611.798,896.75
611.931,897.85
612.063,896.05
612.196,898.25
612.329,895.3
612.461,897.95
612.594,898.75
612.727,898.05
612.859,897.7
612.992,898.95
613.124,899.9
613.257,900.35
613.39,898.8
613.522,899.15
613.655,899.9
613.787,898.5
613.92,900.9
614.052,899.55
614.185,901.3
614.317,899.8
614.45,902.15
614.583,901.5
614.715,901.25
614.848,901.65
614.98,904.05
615.113,900.65
615.245,899.85
615.378,901.1
615.51,902.1
615.643,903.05
615.775,902.25
615.908,902.7
616.04,904.65
616.173,906.85
616.305,907.75
616.438,907.25
616.57,906.9
616.703,908.2
616.835,909.8
616.968,911.6
617.1,911.65
617.233,909.25
617.365,909.5
617.498,912.9
617.63,912.0
617.762,915.0
617.895,915.05
618.027,913.3
618.16,913.6
618.292,915.95
618.425,916.5
618.557,916.4
618.689,916.65
618.822,915.7
618.954,912.2
619.087,912.5
619.219,912.95
619.351,914.8
619.484,914.55
619.616,914.8
619.749,914.65
619.881,915.95
620.013,912.75
620.146,914.3
620.278,914.45
620.41,912.8
620.543,914.35
620.675,916.95
620.808,912.7
620.94,913.8
621.072,915.7
621.205,915.35
621.337,915.1
621.469,914.7
621.602,915.6
621.734,914.45
621.866,914.15
621.998,918.5
622.131,918.35
622.263,919.1
622.395,918.25
622.528,919.55
622.66,919.7
622.792,922.5
622.925,921.25
623.057,918.35
623.189,919.55
623.321,918.95
623.454,919.35
623.586,915.3
623.718,919.0
623.85,920.9
623.983,917.55
624.115,919.5
624.247,918.6
624.379,922.5
624.512,922.5
624.644,924.4
624.776,923.2
624.908,923.35
625.041,922.85
625.173,920.75
625.305,923.05
625.437,922.85
625.569,924.35
625.702,920.15
625.834,924.5
625.966,926.95
626.098,927.05
626.23,926.8
626.363,930.15
626.495,932.05
626.627,939.95
626.759,951.45
626.891,967.6
627.024,995.95
627.156,1032.4
627.288,1062.15
627.42,1073.75
627.552,1063.05
627.684,1048.35
627.816,1035.2
627.949,1019.95
628.081,1010.95
628.213,1018.75
628.345,1025.1
628.477,1036.8
628.609,1054.85
628.741,1076.95
628.874,1107.35
629.006,1133.4
629.138,1158.4
629.27,1191.15
629.402,1200.7
629.534,1204.45
629.666,1201.5
629.798,1193.05
629.93,1180.85
630.062,1157.35
630.195,1137.9
630.327,1123.1
630.459,1102.15
630.591,1088.65
630.723,1075.0
630.855,1062.2
630.987,1040.45
631.119,1021.9
631.251,1008.25
631.383,998.4
631.515,988.1
631.647,985.35
631.779,980.45
631.911,983.65
632.043,983.7
632.175,991.1
632.307,1011.35
632.439,1019.1
632.571,997.9
632.703,981.2
632.835,967.2
632.967,965.35
633.099,979.55
633.231,1003.65
633.363,1022.15
633.495,1010.35
633.627,989.75
633.759,976.2
633.891,976.8
634.023,989.4
634.155,1013.2
634.287,1056.15
634.419,1103.5
634.551,1155.35
634.683,1211.0
634.815,1239.35
634.947,1260.85
635.079,1304.95
635.211,1440.35
635.343,1616.25
635.475,1672.4
635.607,1658.2
635.739,1630.6
635.871,1551.25
636.003,1419.7
636.135,1286.1
636.267,1190.0
636.398,1116.8
636.53,1070.0
636.662,1041.35
636.794,1020.55
636.926,999.7
637.058,986.6
637.19,977.35
637.322,972.25
637.454,971.95
637.586,969.95
637.717,964.3
637.849,958.15
637.981,955.75
638.113,949.85
638.245,949.6
638.377,946.95
638.509,948.2
638.641,944.0
638.773,946.0
638.904,943.25
639.036,942.6
639.168,944.8
639.3,945.95
639.432,947.0
639.564,951.3
639.695,953.2
639.827,963.15
639.959,966.2
640.091,961.95
640.223,955.3
640.355,947.7
640.486,945.5
640.618,943.5
640.75,944.3
640.882,942.8
641.014,946.0
641.146,950.1
641.277,954.65
641.409,960.85
641.541,959.95
641.673,958.9
641.805,952.0
641.936,948.85
642.068,944.3
642.2,940.6
642.332,941.85
642.464,937.35
642.595,936.9
642.727,939.85
642.859,939.0
642.991,938.05
643.122,938.0
643.254,937.15
643.386,938.6
643.518,937.15
643.649,939.7
643.781,938.15
643.913,935.95
644.045,934.65
644.176,937.35
644.308,938.1
644.44,938.2
644.572,936.5
644.703,936.1
644.835,935.05
644.967,937.85
645.099,936.35
645.23,936.95
645.362,937.85
645.494,937.1
645.625,937.85
645.757,932.65
645.889,939.4
646.021,938.3
646.152,937.35
646.284,939.25
646.416,937.05
646.547,937.85
646.679,936.7
646.811,937.75
646.942,941.75
647.074,938.5
647.206,938.1
647.337,939.9
647.469,938.1
647.601,942.2
647.732,940.15
647.864,939.3
647.996,942.85
648.127,941.9
648.259,940.5
648.391,942.75
648.522,939.25
648.654,936.95
648.786,941.0
648.917,941.0
649.049,942.7
649.181,940.15
649.312,939.8
649.444,942.5
649.576,939.35
649.707,940.8
649.839,941.0
649.971,939.4
650.102,940.45
650.234,940.2
650.365,940.4
650.497,940.45
650.629,942.05
650.76,939.05
650.892,940.4
651.023,941.0
651.155,943.15
651.287,941.05
651.418,942.9
651.55,943.5
651.682,942.1
651.813,942.55
651.945,945.0
652.076,945.05
652.208,942.4
652.339,946.15
652.471,942.95
652.603,945.2
652.734,942.15
652.866,944.2
652.997,941.6
653.129,944.35
653.261,943.2
653.392,944.35
653.524,941.3
653.655,942.7
653.787,946.95
653.918,944.95
654.05,948.75
654.181,944.35
654.313,942.65
654.445,940.9
654.576,943.4
654.708,944.0
654.839,944.4
654.971,943.7
655.102,946.9
655.234,946.7
655.365,943.15
655.497,945.25
655.628,946.45
655.76,944.4
655.892,946.15
656.023,945.65
656.155,944.75
656.286,945.85
656.418,947.85
656.549,946.8
656.681,946.3
656.812,947.0
656.944,949.3
657.075,948.05
657.207,946.85
657.338,946.0
657.47,945.65
657.601,948.55
657.733,948.3
657.864,950.7
657.996,947.9
658.127,948.85
658.259,948.5
658.39,950.0
658.522,950.85
658.653,948.85
658.785,947.8
658.916,948.9
659.048,951.6
659.179,951.4
659.311,951.55
659.442,949.0
659.574,950.95
659.705,948.65
659.836,951.85
659.968,950.15
660.099,952.1
660.231,949.8
660.362,953.5
660.494,950.25
660.625,949.35
660.757,950.95
660.888,949.6
661.02,951.05
661.151,953.6
661.283,948.65
661.414,949.25
661.545,945.5
661.677,947.3
661.808,945.6
661.94,950.75
662.071,949.3
662.203,949.4
662.334,948.5
662.466,950.25
662.597,948.9
662.728,951.95
662.86,949.55
662.991,948.45
663.123,951.9
