nm,Intensity
791.75,9930.5
792.024,9914.4
792.298,9871.2
792.572,9750.7
792.846,9471.35
793.12,9420.85
793.394,9289.5
793.668,9261.0
793.942,9419.0
794.215,9406.05
794.489,9190.65
794.763,9013.7
795.037,8951.8
795.311,8865.3
795.585,8781.8
795.859,8738.45
796.133,8649.45
796.407,8407.7
796.681,8372.05
796.955,8367.95
797.228,8275.35
797.502,8264.45
797.776,8250.9
798.05,8174.05
798.324,8123.65
798.598,8020.2
798.871,8163.6
799.145,8176.85
799.419,8044.55
799.693,8058.1
799.967,8093.9
800.241,8067.65
800.514,8071.1
800.788,8087.4
801.062,8003.25
801.336,7971.75
801.61,8081.75
801.883,7974.8
802.157,7894.7
802.431,7909.85
802.705,7987.2
802.978,8072.75
803.252,8068.05
803.526,7971.85
803.8,7918.25
804.073,8002.3
804.347,7997.3
804.621,8044.3
804.894,8046.85
805.168,8150.75
805.442,8011.15
805.715,8035.25
805.989,8078.15
806.263,8159.45
806.536,8138.35
806.81,8069.35
807.084,8139.15
807.357,8092.45
807.631,8110.25
807.905,8083.35
808.178,8132.9
808.452,8237.05
808.726,8262.9
808.999,8264.6
809.273,8231.6
809.546,8201.05
809.82,8289.45
810.094,8370.45
810.367,8287.4
810.641,8288.6
810.914,8379.8
811.188,8423.35
811.461,8385.15
811.735,8301.9
812.008,8385.2
812.282,8339.7
812.556,8291.95
812.829,8389.5
813.103,8430.65
813.376,8421.85
813.65,8518.9
813.923,8328.85
814.197,8366.55
814.47,8343.15
814.744,8474.1
815.017,8428.2
815.29,8520.15
815.564,8455.85
815.837,8408.05
816.111,8491.85
816.384,8519.25
816.658,8580.55
816.931,8592.25
817.205,8546.75
817.478,8474.05
817.751,8553.7
818.025,8661.6
818.298,8628.7
818.572,8645.1
818.845,8712.85
819.118,8629.05
819.392,8739.2
819.665,8765.15
819.938,8679.7
820.212,8833.7
820.485,8704.85
820.758,8590.9
821.032,8682.85
821.305,8709.1
821.578,8845.95
821.852,8863.4
822.125,8798.6
822.398,8924.8
822.672,8876.8
822.945,8840.85
823.218,8811.15
823.491,8891.35
823.765,8970.3
824.038,8738.95
824.311,8785.85
824.585,8836.75
824.858,9027.75
825.131,9029.8
825.404,8996.65
825.677,8871.1
825.951,8899.35
826.224,8935.15
826.497,8903.15
826.77,8755.3
827.043,8717.55
827.317,8784.4
827.59,8735.05
827.863,8849.0
828.136,8757.7
828.409,8738.8
828.682,8613.6
828.956,8723.2
829.229,8785.05
829.502,8714.2
829.775,8634.85
830.048,8704.25
830.321,8664.45
830.594,8604.35
830.867,8674.3
831.14,8664.05
831.413,8752.9
831.687,8755.7
831.96,8731.0
832.233,8782.05
832.506,8701.0
832.779,8654.95
833.052,8764.1
833.325,8759.85
833.598,8761.0
833.871,8759.7
834.144,8757.65
834.417,8792.4
834.69,8921.4
834.963,8813.35
835.236,8694.2
835.509,8828.75
835.782,8863.9
836.055,8757.75
836.328,8811.25
836.601,8763.9
836.874,8795.35
837.147,8851.15
837.419,8916.15
837.692,8877.65
837.965,8944.4
838.238,8982.6
838.511,8974.3
838.784,9017.7
839.057,9041.6
839.33,8942.05
839.603,9039.85
839.876,9066.05
840.148,9030.85
840.421,9089.65
840.694,9107.95
840.967,8924.85
841.24,8946.4
841.513,8913.35
841.785,8942.5
842.058,8983.2
842.331,9039.55
842.604,9210.7
842.877,9293.05
843.149,9056.15
843.422,8996.65
843.695,9234.3
843.968,9297.35
844.24,9096.9
844.513,9073.4
844.786,9138.35
845.059,9241.5
845.331,9309.05
845.604,9315.5
845.877,9150.45
846.15,9101.15
846.422,9162.5
846.695,9132.1
846.968,9233.8
847.24,9317.75
847.513,9351.0
847.786,9529.75
848.058,9291.1
848.331,9332.35
848.604,9345.0
848.876,9282.15
849.149,9279.65
849.421,9538.45
849.694,9473.1
849.967,9296.25
850.239,9207.45
850.512,9329.05
850.784,9426.95
851.057,9518.5
851.33,9552.05
851.602,9440.75
851.875,9439.15
852.147,9569.2
852.42,9655.0
852.692,9577.0
852.965,9617.05
853.237,9508.9
853.51,9456.1
853.782,9611.95
854.055,9534.25
854.327,9527.2
854.6,9444.35
854.872,9432.7
855.145,9707.25
855.417,9629.5
855.69,9505.5
855.962,9419.55
856.235,9501.85
856.507,9498.6
856.779,9376.0
857.052,9481.4
857.324,9587.65
857.597,9623.15
857.869,9679.9
858.142,9583.25
858.414,9549.0
858.686,9640.8
858.959,9688.1
859.231,9602.9
859.503,9481.7
859.776,9495.2
860.048,9602.25
860.32,9457.5
860.593,9475.3
860.865,9363.35
861.137,9412.7
861.41,9512.2
861.682,9471.75
861.954,9571.65
862.226,9672.45
862.499,9633.65
862.771,9424.0
863.043,9481.75
863.315,9468.9
863.588,9561.05
863.86,9550.25
864.132,9454.2
864.404,9648.05
864.677,9564.8
864.949,9597.8
865.221,9699.45
865.493,9633.6
865.765,9408.0
866.038,9297.5
866.31,9455.3
866.582,9386.5
866.854,9493.65
867.126,9662.55
867.398,9494.8
867.67,9341.1
867.943,9457.95
868.215,9476.85
868.487,9534.1
868.759,9564.2
869.031,9458.55
869.303,9473.35
869.575,9303.55
869.847,9375.75
870.119,9631.95
870.391,9654.3
870.663,9425.15
870.935,9576.15
871.207,9750.35
871.479,9631.65
871.751,9547.7
872.023,9432.2
872.295,9361.5
872.567,9597.25
872.839,9538.5
873.111,9464.4
873.383,9348.8
873.655,9418.7
873.927,9548.35
874.199,9507.8
874.471,9524.2
874.743,9606.2
875.015,9705.0
875.287,9781.8
875.559,9750.55
875.831,9782.05
876.103,9734.9
876.374,9522.65
876.646,9646.95
876.918,9554.9
877.19,9515.95
877.462,9487.05
877.734,9650.5
878.006,9683.75
878.277,9664.5
878.549,9557.05
878.821,9516.7
879.093,9506.0
879.365,9551.25
879.636,9320.85
879.908,9378.5
880.18,9506.0
880.452,9399.8
880.723,9360.75
880.995,9414.8
881.267,9299.05
881.539,9244.6
881.81,9438.85
882.082,9449.3
882.354,9546.0
882.626,9541.35
882.897,9433.15
883.169,9355.3
883.441,9306.2
883.712,9241.75
883.984,9365.3
884.256,9428.8
884.527,9412.1
884.799,9362.55
885.07,9370.5
885.342,9212.85
885.614,9262.35
885.885,9439.6
886.157,9495.4
886.428,9399.1
886.7,9227.35
886.972,9197.3
887.243,9125.1
887.515,9158.1
887.786,9249.8
888.058,9227.6
888.329,9329.8
888.601,9260.4
888.872,9233.05
889.144,9149.3
889.415,9228.0
889.687,9297.8
889.958,9214.5
890.23,9368.1
890.501,9346.85
890.773,9167.05
891.044,9047.6
891.316,9027.45
891.587,8991.0
891.859,9061.9
892.13,9223.65
892.401,9178.15
892.673,9219.25
892.944,9266.65
893.216,8894.7
893.487,8933.6
893.758,9052.25
894.03,9074.2
894.301,9088.25
894.572,9036.15
894.844,9057.4
895.115,9021.2
895.386,8952.7
895.658,9048.0
895.929,9105.35
896.2,8928.0
896.472,8957.15
896.743,9124.2
897.014,9116.25
897.285,8991.8
897.557,9132.6
897.828,9058.6
898.099,8906.5
898.37,8895.0
898.642,8885.25
898.913,9019.25
899.184,8998.6
899.455,8983.95
899.726,8908.5
899.998,8922.8
900.269,8982.65
900.54,8899.25
900.811,8882.65
901.082,8832.1
901.353,8761.0
901.625,8745.75
901.896,8816.85
902.167,8986.4
902.438,8948.85
902.709,8952.8
902.98,8882.6
903.251,8927.3
903.522,8847.1
903.793,8683.55
904.064,8720.7
904.335,8802.5
904.606,8834.8
904.877,8866.15
905.148,8879.15
905.419,8814.35
905.69,8723.85
905.961,8786.6
906.232,8667.7
906.503,8568.85
906.774,8651.35
907.045,8687.7
907.316,8454.5
907.587,8548.65
907.858,8743.1
908.129,8748.8
908.4,8669.45
908.671,8700.7
908.942,8599.7
909.213,8685.9
909.484,8795.6
909.755,8878.75
910.025,8640.25
910.296,8471.15
910.567,8451.15
910.838,8432.25
911.109,8584.85
911.38,8458.05
911.65,8468.45
911.921,8474.75
912.192,8470.95
912.463,8413.85
912.734,8490.3
913.004,8453.95
913.275,8434.8
913.546,8369.4
913.817,8357.9
914.087,8407.35
914.358,8394.9
914.629,8308.25
914.9,8262.85
915.17,8318.5
915.441,8247.75
915.712,8255.35
915.982,8429.8
916.253,8432.1
916.524,8274.45
916.794,8365.55
917.065,8424.1
917.336,8312.7
917.606,8199.6
917.877,8082.75
918.147,8086.6
918.418,8057.9
918.689,8110.85
918.959,8146.85
919.23,8251.45
919.5,8219.8
919.771,8065.45
920.042,8036.75
920.312,7917.25
920.583,7958.6
920.853,8054.05
921.124,8117.5
921.394,8165.0
921.665,8128.3
921.935,8041.0
922.206,8000.95
922.476,7978.3
922.747,8058.05
923.017,8057.5
923.287,8093.0
923.558,8019.75
923.828,7916.85
924.099,7837.6
924.369,7859.2
924.639,7883.9
924.91,7916.1
925.18,7937.55
925.451,7966.3
925.721,7954.7
925.991,7829.6
926.262,7667.75
926.532,7743.65
926.802,7745.35
927.073,7815.2
927.343,7889.9
927.613,7871.25
927.884,7799.4
928.154,7834.95
928.424,7775.0
928.694,7682.55
928.965,7655.35
929.235,7589.6
929.505,7555.0
929.775,7557.5
930.046,7551.3
930.316,7592.4
930.586,7744.6
930.856,7716.75
931.126,7579.05
931.397,7558.2
931.667,7605.05
931.937,7516.45
932.207,7489.95
932.477,7507.0
932.747,7428.45
933.017,7436.7
933.288,7523.35
933.558,7575.1
933.828,7469.25
934.098,7463.75
934.368,7446.25
934.638,7496.65
934.908,7520.15
935.178,7458.5
935.448,7263.15
935.718,7226.3
935.988,7327.45
936.258,7301.15
936.528,7251.3
936.798,7235.65
937.068,7284.2
937.338,7260.95
937.608,7260.25
937.878,7155.55
938.148,7123.2
938.418,7135.2
938.688,7141.9
938.958,7078.0
939.228,7031.45
939.498,7177.55
939.767,7207.0
940.037,7111.75
940.307,7092.0
940.577,6978.35
940.847,6927.1
941.117,6884.5
941.387,6813.0
941.656,6852.75
941.926,6931.25
942.196,7076.2
942.466,6990.5
942.736,6904.95
943.005,6945.8
943.275,6902.75
943.545,6871.0
943.815,6733.55
944.084,6750.55
944.354,6760.4
944.624,6841.35
944.894,6881.8
945.163,6826.05
945.433,6751.7
945.703,6734.05
945.972,6710.6
946.242,6727.15
946.512,6612.75
946.781,6598.3
947.051,6745.35
947.321,6691.6
947.59,6616.9
947.86,6605.35
948.13,6661.65
948.399,6727.9
948.669,6603.55
948.938,6546.45
949.208,6524.25
949.477,6562.3
949.747,6583.9
950.016,6612.2
950.286,6526.2
950.556,6471.4
950.825,6415.45
951.095,6439.95
951.364,6465.6
951.634,6441.6
951.903,6407.0
952.172,6320.65
952.442,6366.5
952.711,6367.5
952.981,6353.15
953.25,6317.45
953.52,6339.1
953.789,6357.4
954.058,6255.1
954.328,6221.45
954.597,6305.4
954.867,6332.3
955.136,6264.5
955.405,6291.0
955.675,6216.95
955.944,6153.3
956.213,6263.0
956.483,6325.4
956.752,6258.15
957.021,6192.35
957.29,6134.35
957.56,6108.2
957.829,6074.05
958.098,6112.35
958.367,6089.55
958.637,6115.55
958.906,6079.05
959.175,6024.55
959.444,6104.8
959.714,6173.15
959.983,6111.1
960.252,6087.0
960.521,6094.2
960.79,6026.05
961.059,5962.25
961.328,5963.8
961.598,5953.4
961.867,5884.15
962.136,5895.95
962.405,5932.55
962.674,5980.95
962.943,5980.8
963.212,5917.5
963.481,5804.9
963.75,5759.1
964.019,5821.95
964.288,5896.95
964.557,5930.65
964.826,5841.15
965.095,5772.8
965.364,5752.2
965.633,5794.9
965.902,5829.65
966.171,5770.25
966.44,5701.45
966.709,5752.35
966.978,5795.6
967.247,5722.7
967.516,5751.6
967.785,5700.15
968.054,5644.85
968.323,5574.1
968.591,5580.85
968.86,5607.6
969.129,5659.75
969.398,5639.65
969.667,5591.6
969.936,5495.35
970.204,5470.25
970.473,5547.65
970.742,5533.95
971.011,5478.7
971.28,5478.2
971.548,5521.15
971.817,5475.05
972.086,5470.6
972.355,5500.2
972.623,5498.1
972.892,5482.5
973.161,5462.5
973.429,5452.9
973.698,5449.65
973.967,5418.75
974.235,5397.5
974.504,5359.05
974.773,5351.5
975.041,5364.45
975.31,5337.45
975.579,5313.95
975.847,5314.1
976.116,5284.95
976.384,5266.65
976.653,5278.3
976.922,5284.65
977.19,5300.7
977.459,5264.7
977.727,5287.3
977.996,5281.65
978.264,5238.2
978.533,5176.1
978.801,5193.0
979.07,5208.8
979.338,5207.1
979.607,5190.2
979.875,5129.65
980.143,5125.95
980.412,5203.45
980.68,5200.05
980.949,5161.65
981.217,5122.1
981.486,5069.65
981.754,5046.2
982.022,5021.65
982.291,5077.7
982.559,5092.3
982.827,5038.7
983.096,5016.65
983.364,5026.0
983.632,5059.05
983.901,5062.45
984.169,5010.9
984.437,4998.6
984.705,4984.5
984.974,4969.65
985.242,4972.0
985.51,5000.1
985.778,4955.9
986.047,4966.6
986.315,4977.15
986.583,4956.5
986.851,4928.5
987.119,4968.35
987.388,4940.15
987.656,4930.85
987.924,4938.2
988.192,4925.4
988.46,4861.4
988.728,4847.15
988.996,4848.55
989.264,4873.0
989.533,4878.15
989.801,4855.95
990.069,4860.45
990.337,4832.8
990.605,4803.6
990.873,4783.45
991.141,4817.45
991.409,4799.65
991.677,4775.0
991.945,4775.4
992.213,4767.75
992.481,4792.4
992.749,4810.5
993.017,4804.55
993.285,4788.95
993.553,4786.65
993.82,4761.45
994.088,4725.25
994.356,4696.3
994.624,4724.6
994.892,4751.9
995.16,4745.95
995.428,4716.75
995.696,4668.05
995.963,4656.1
996.231,4691.6
996.499,4699.95
996.767,4689.0
997.035,4673.6
997.302,4642.7
997.57,4607.45
997.838,4621.85
998.106,4622.25
998.373,4628.95
998.641,4614.7
998.909,4598.5
999.177,4604.0
999.444,4578.4
999.712,4553.1
999.98,4548.1
1000.25,4554.05
1000.51,4573.55
1000.78,4576.75
1001.05,4557.8
1001.32,4532.2
1001.59,4546.1
1001.85,4543.6
1002.12,4529.85
1002.39,4497.0
1002.66,4488.3
1002.92,4482.85
1003.19,4492.45
1003.46,4472.7
1003.73,4485.6
1003.99,4490.6
1004.26,4487.7
1004.53,4467.15
1004.8,4469.9
1005.06,4473.85
1005.33,4453.0
1005.6,4433.3
1005.87,4424.95
1006.13,4422.75
1006.4,4409.8
1006.67,4422.1
1006.94,4408.6
1007.2,4383.95
1007.47,4376.55
1007.74,4366.0
1008.0,4368.6
1008.27,4357.55
1008.54,4350.65
1008.81,4340.95
1009.07,4338.2
1009.34,4341.15
1009.61,4357.25
1009.88,4345.0
1010.14,4351.55
1010.41,4336.9
1010.68,4321.65
1010.95,4322.7
1011.21,4321.6
1011.48,4294.9
1011.75,4307.25
1012.01,4330.15
1012.28,4336.25
1012.55,4307.95
1012.82,4301.9
1013.08,4286.3
1013.35,4271.5
1013.62,4269.15
1013.88,4276.0
1014.15,4285.1
1014.42,4272.4
1014.69,4273.15
1014.95,4275.8
1015.22,4270.4
1015.49,4246.85
1015.75,4232.0
1016.02,4234.75
1016.29,4226.65
1016.55,4231.3
1016.82,4231.55
1017.09,4218.45
1017.36,4210.9
1017.62,4197.4
1017.89,4191.3
1018.16,4194.45
1018.42,4187.6
1018.69,4182.95
1018.96,4184.95
1019.22,4186.6
1019.49,4168.7
1019.76,4163.55
1020.02,4146.1
1020.29,4136.7
1020.56,4145.8
1020.83,4137.15
1021.09,4138.0
1021.36,4135.9
1021.63,4115.6
1021.89,4114.85
1022.16,4117.15
1022.43,4127.3
1022.69,4127.6
1022.96,4120.05
1023.23,4112.4
1023.49,4105.3
1023.76,4082.65
1024.03,4082.75
1024.29,4075.05
1024.56,4065.3
1024.83,4067.8
1025.09,4065.65
1025.36,4051.45
1025.63,4043.9
1025.89,4054.2
1026.16,4060.0
1026.43,4061.65
1026.69,4052.5
1026.96,4045.65
1027.23,4041.25
1027.49,4032.85
1027.76,4032.9
1028.03,4018.25
1028.29,4002.95
1028.56,4003.75
1028.83,4000.8
1029.09,3997.6
1029.36,3992.15
1029.62,3987.3
1029.89,3985.0
1030.16,3986.25
1030.42,3989.45
1030.69,3987.9
1030.96,3987.85
1031.22,3988.4
1031.49,3988.05
1031.76,3982.5
1032.02,3972.85
1032.29,3974.05
1032.56,3972.7
1032.82,3966.15
1033.09,3971.0
1033.35,3969.3
1033.62,3962.2
1033.89,3960.6
1034.15,3941.3
1034.42,3939.1
1034.69,3933.1
1034.95,3938.7
1035.22,3940.7
1035.48,3939.3
1035.75,3944.1
1036.02,3938.8
1036.28,3934.6
1036.55,3926.7
1036.81,3931.5
1037.08,3925.9
1037.35,3919.65
1037.61,3916.5
1037.88,3915.2
1038.15,3918.9
1038.41,3912.4
1038.68,3905.8
1038.94,3903.85
1039.21,3898.4
1039.48,3905.1
1039.74,3902.5
1040.01,3904.3
1040.27,3899.55
1040.54,3896.0
1040.81,3895.5
1041.07,3892.55
1041.34,3887.85
1041.6,3889.3
1041.87,3883.15
1042.14,3879.7
1042.4,3871.8
1042.67,3872.25
1042.93,3877.8
1043.2,3871.2
1043.47,3870.4
1043.73,3865.45
1044.0,3865.55
1044.26,3865.9
1044.53,3861.05
1044.79,3861.05
1045.06,3861.1
1045.33,3855.15
1045.59,3855.6
1045.86,3854.25
1046.12,3851.95
1046.39,3851.15
1046.65,3849.35
1046.92,3847.35
1047.19,3846.4
1047.45,3840.95
1047.72,3840.15
1047.98,3839.5
1048.25,3839.55
1048.51,3840.15
1048.78,3835.05
1049.05,3837.15
1049.31,3838.6
1049.58,3836.8
1049.84,3834.25
1050.11,3831.7
1050.37,3836.85
1050.64,3830.5
1050.91,3830.7
1051.17,3831.85
1051.44,3832.0
1051.7,3831.05
1051.97,3826.15
1052.23,3825.05
1052.5,3825.75
1052.76,3824.05
1053.03,3824.65
1053.29,3823.5
1053.56,3821.9
1053.83,3822.9
1054.09,3818.3
1054.36,3820.8
1054.62,3820.3
1054.89,3816.95
1055.15,3815.55
1055.42,3818.0
1055.68,3818.4
1055.95,3821.75
1056.21,3816.5
1056.48,3812.5
1056.74,3810.95
1057.01,3812.45
1057.27,3810.3
1057.54,3810.85
1057.81,3810.85
1058.07,3811.65
1058.34,3807.6
1058.6,3804.75
1058.87,3801.9
1059.13,3803.5
1059.4,3807.4
1059.66,3804.1
1059.93,3804.4
1060.19,3806.75
1060.46,3803.2
1060.72,3803.6
1060.99,3801.95
1061.25,3799.1
1061.52,3795.05
1061.78,3797.85
1062.05,3796.4
1062.31,3797.45
1062.58,3793.8
1062.84,3795.15
1063.11,3793.5
1063.37,3792.2
1063.64,3791.35
1063.9,3793.3
1064.17,3793.9
1064.43,3791.8
1064.7,3795.35
1064.96,3794.5
1065.23,3795.85
1065.49,3795.25
1065.76,3792.65
1066.02,3789.4
1066.29,3787.3
1066.55,3786.05
1066.82,3786.05
1067.08,3786.9
1067.35,3787.4
1067.61,3785.5
1067.88,3785.4
