nm,Intensity
526.553,835.66
526.69,835.42
526.827,835.72
526.963,836.26
527.1,835.04
527.237,835.32
527.373,835.9
527.51,835.9
527.647,835.46
527.784,835.66
527.92,835.74
528.057,835.98
528.194,835.84
528.33,835.8
528.467,835.18
528.603,835.68
528.74,835.68
528.877,835.34
529.013,836.04
529.15,835.32
529.286,835.76
529.423,835.32
529.56,835.46
529.696,835.48
529.833,835.42
529.969,835.78
530.106,835.14
530.242,835.86
530.379,835.2
530.515,835.28
530.652,835.64
530.788,835.72
530.925,835.06
531.061,835.82
531.198,836.08
531.334,835.64
531.47,835.64
531.607,835.9
531.743,835.04
531.88,836.02
532.016,858.28
532.152,931.62
532.289,901.92
532.425,843.94
532.562,836.36
532.698,835.72
532.834,835.08
532.971,835.34
533.107,835.68
533.243,835.66
533.38,835.36
533.516,835.48
533.652,837.36
533.789,854.8
533.925,912.34
534.061,973.22
534.197,990.26
534.334,986.92
534.47,983.06
534.606,985.12
534.742,987.34
534.879,985.84
535.015,986.98
535.151,982.12
535.287,977.84
535.423,973.36
535.56,969.24
535.696,964.24
535.832,960.98
535.968,962.64
536.104,958.34
536.24,957.64
536.376,956.06
536.513,953.64
536.649,953.72
536.785,954.4
536.921,954.04
537.057,952.54
537.193,952.78
537.329,953.62
537.465,953.72
537.601,953.84
537.737,954.66
537.873,953.08
538.009,954.44
538.145,954.3
538.281,952.24
538.417,950.8
538.553,949.22
538.689,948.36
538.825,947.74
538.961,948.22
539.097,947.24
539.233,945.82
539.369,941.94
539.505,946.08
539.641,944.12
539.777,944.64
539.913,942.5
540.049,942.92
540.185,939.92
540.321,940.32
540.457,939.32
540.592,940.38
540.728,940.4
540.864,939.46
541.0,940.36
541.136,939.94
541.272,939.88
541.408,940.82
541.543,939.88
541.679,941.14
541.815,939.5
541.951,939.8
542.087,940.42
542.222,941.66
542.358,939.72
542.494,940.16
542.63,940.38
542.765,941.3
542.901,939.86
543.037,941.4
543.173,941.66
543.308,940.68
543.444,940.56
543.58,941.86
543.715,942.44
543.851,943.5
543.987,939.74
544.123,941.16
544.258,942.2
544.394,942.32
544.529,942.22
544.665,942.38
544.801,943.86
544.936,944.86
545.072,945.96
545.208,946.3
545.343,944.3
545.479,943.88
545.614,945.04
545.75,943.58
545.886,945.78
546.021,946.8
546.157,946.82
546.292,944.52
546.428,945.12
546.563,945.6
546.699,946.22
546.834,945.76
546.97,946.26
547.105,944.9
547.241,945.44
547.376,945.08
547.512,946.08
547.647,944.92
547.783,945.9
547.918,945.22
548.054,944.28
548.189,942.38
548.325,944.52
548.46,944.76
548.595,943.5
548.731,943.52
548.866,945.96
549.002,945.0
549.137,944.08
549.272,945.46
549.408,944.72
549.543,944.14
549.679,943.08
549.814,943.2
549.949,944.04
550.085,941.64
550.22,939.12
550.355,939.74
550.491,940.42
550.626,942.5
550.761,939.94
550.896,940.82
551.032,941.64
551.167,941.34
551.302,939.68
551.438,941.4
551.573,941.76
551.708,938.16
551.843,939.7
551.979,939.4
552.114,938.7
552.249,940.96
552.384,940.46
552.519,938.64
552.655,937.64
552.79,936.78
552.925,938.62
553.06,937.36
553.195,937.08
553.331,939.12
553.466,939.86
553.601,940.14
553.736,937.62
553.871,936.16
554.006,938.3
554.141,935.84
554.276,935.94
554.412,935.6
554.547,936.94
554.682,935.2
554.817,934.5
554.952,936.46
555.087,935.24
555.222,935.84
555.357,935.0
555.492,932.6
555.627,932.8
555.762,932.48
555.897,932.88
556.032,934.34
556.167,934.34
556.302,934.62
556.437,934.12
556.572,933.46
556.707,936.34
556.842,935.02
556.977,934.64
557.112,937.12
557.247,935.42
557.382,935.44
557.517,936.24
557.652,935.04
557.787,936.04
557.922,936.82
558.057,936.1
558.192,937.14
558.327,936.68
558.462,935.18
558.596,936.38
558.731,935.56
558.866,932.14
559.001,932.78
559.136,933.62
559.271,934.34
559.406,933.1
559.54,932.74
559.675,934.96
559.81,932.7
559.945,933.98
560.08,932.32
560.215,933.8
560.349,930.78
560.484,931.66
560.619,929.86
560.754,931.02
560.889,930.1
561.023,929.28
561.158,930.78
561.293,929.56
561.428,930.64
561.562,929.62
561.697,929.76
561.832,929.38
561.966,931.4
562.101,933.16
562.236,931.66
562.371,931.2
562.505,932.68
562.64,935.04
562.775,933.52
562.909,932.76
563.044,935.92
563.179,937.18
563.313,937.92
563.448,937.96
563.583,940.32
563.717,947.12
563.852,973.82
563.986,1040.38
564.121,1069.52
564.256,1000.44
564.39,962.64
564.525,959.78
564.659,961.24
564.794,960.92
564.929,956.52
565.063,951.22
565.198,946.46
565.332,945.84
565.467,946.94
565.601,948.9
565.736,951.68
565.87,960.44
566.005,994.18
566.139,1073.84
566.274,1084.68
566.408,995.08
566.543,952.36
566.677,945.84
566.812,943.46
566.946,941.42
567.081,942.04
567.215,943.94
567.35,950.22
567.484,964.5
567.619,957.18
567.753,945.14
567.888,940.14
568.022,939.62
568.156,937.56
568.291,939.28
568.425,943.0
568.56,942.2
568.694,940.94
568.828,941.18
568.963,943.08
569.097,942.14
569.231,942.22
569.366,944.28
569.5,943.88
569.635,943.82
569.769,944.96
569.903,946.16
570.038,946.8
570.172,948.94
570.306,948.32
570.441,953.22
570.575,953.76
570.709,957.12
570.843,959.06
570.978,957.52
571.112,961.82
571.246,971.22
571.38,1009.32
571.515,1143.22
571.649,1157.06
571.783,1030.78
571.917,991.5
572.052,979.64
572.186,971.68
572.32,965.42
572.454,961.34
572.589,958.28
572.723,956.68
572.857,953.4
572.991,955.04
573.125,954.78
573.26,954.1
573.394,955.24
573.528,954.34
573.662,955.52
573.796,959.96
573.93,966.6
574.064,968.52
574.199,962.56
574.333,958.62
574.467,956.82
574.601,956.92
574.735,959.9
574.869,958.3
575.003,958.3
575.137,958.84
575.271,964.26
575.406,988.58
575.54,1034.44
575.674,1025.84
575.808,1001.28
575.942,1006.84
576.076,1037.76
576.21,1100.84
576.344,1149.02
576.478,1109.38
576.612,1061.92
576.746,1049.64
576.88,1056.74
577.014,1057.66
577.148,1056.1
577.282,1037.14
577.416,1011.58
577.55,989.2
577.684,982.56
577.818,974.46
577.952,969.42
578.086,966.96
578.22,964.02
578.354,967.1
578.488,966.48
578.622,967.16
578.756,964.64
578.89,962.32
579.023,961.68
579.157,959.78
579.291,962.68
579.425,960.72
579.559,964.2
579.693,969.2
579.827,964.44
579.961,963.14
580.095,960.38
580.228,960.32
580.362,960.08
580.496,959.88
580.63,958.46
580.764,957.68
580.898,957.0
581.032,956.78
581.165,954.54
581.299,956.4
581.433,953.04
581.567,955.02
581.701,953.52
581.834,953.48
581.968,953.94
582.102,954.28
582.236,952.44
582.37,954.2
582.503,953.84
582.637,952.16
582.771,951.9
582.905,953.6
583.038,953.42
583.172,954.16
583.306,955.7
583.44,953.3
583.573,950.24
583.707,950.78
583.841,952.5
583.974,950.82
584.108,951.68
584.242,950.04
584.375,950.02
584.509,951.16
584.643,950.22
584.777,949.54
584.91,950.22
585.044,947.98
585.177,947.74
585.311,949.8
585.445,948.34
585.578,948.8
585.712,947.02
585.846,947.3
585.979,949.36
586.113,947.96
586.247,949.72
586.38,947.4
586.514,947.42
586.647,947.78
586.781,948.66
586.914,948.26
587.048,947.48
587.182,945.4
587.315,947.16
587.449,945.3
587.582,947.82
587.716,945.82
587.849,945.02
587.983,945.54
588.116,945.22
588.25,942.78
588.384,943.66
588.517,943.84
588.651,941.52
588.784,941.58
588.918,939.84
589.051,939.84
589.185,941.84
589.318,941.68
589.452,941.0
589.585,940.18
589.718,940.4
589.852,939.06
589.985,941.08
590.119,940.32
590.252,938.54
590.386,938.72
590.519,939.78
590.653,940.52
590.786,939.6
590.919,939.8
591.053,938.26
591.186,939.46
591.32,938.92
591.453,937.16
591.586,938.56
591.72,938.24
591.853,937.42
591.987,939.12
592.12,936.38
592.253,937.54
592.387,936.16
592.52,934.82
592.653,933.8
592.787,935.68
592.92,934.64
593.053,934.62
593.187,934.12
593.32,934.06
593.453,933.7
593.587,931.62
593.72,933.9
593.853,933.38
593.987,931.44
594.12,930.88
594.253,931.78
594.386,932.18
594.52,931.04
594.653,931.9
594.786,932.36
594.919,933.6
595.053,932.0
595.186,932.02
595.319,931.46
595.452,931.28
595.586,930.76
595.719,929.42
595.852,929.94
595.985,929.44
596.119,928.6
596.252,928.7
596.385,929.92
596.518,929.66
596.651,928.02
596.785,927.98
596.918,927.42
597.051,930.58
597.184,926.74
597.317,929.74
597.45,928.08
597.584,929.34
597.717,927.68
597.85,926.94
597.983,927.66
598.116,927.14
598.249,927.52
598.382,925.36
598.516,925.38
598.649,925.7
598.782,926.48
598.915,926.58
599.048,926.4
599.181,925.64
599.314,924.42
599.447,924.94
599.58,925.68
599.713,924.8
599.847,925.66
599.98,925.46
600.113,924.44
600.246,922.18
600.379,921.36
600.512,924.36
600.645,922.28
600.778,921.6
600.911,921.08
601.044,921.96
601.177,921.98
601.31,921.66
601.443,921.24
601.576,923.44
601.709,921.88
601.842,922.36
601.975,925.94
602.108,925.88
602.241,925.38
602.374,922.68
602.507,921.74
602.64,923.16
602.773,919.62
602.906,919.42
603.039,921.06
603.172,919.5
603.305,915.6
603.438,919.72
603.571,917.58
603.703,920.26
603.836,920.02
603.969,919.2
604.102,917.18
604.235,919.54
604.368,917.84
604.501,917.4
604.634,915.84
604.767,915.76
604.9,915.16
605.033,913.96
605.165,914.94
605.298,911.5
605.431,913.82
605.564,914.06
605.697,912.2
605.83,912.06
605.963,911.54
606.095,912.44
606.228,912.0
606.361,912.3
606.494,910.64
606.627,909.02
606.76,910.0
606.892,910.94
607.025,910.14
607.158,911.18
607.291,909.32
607.424,910.3
607.556,910.44
607.689,910.52
607.822,909.74
607.955,908.92
608.088,909.02
608.22,910.44
608.353,910.56
608.486,909.12
608.619,910.36
608.751,910.12
608.884,909.2
609.017,909.7
609.15,910.08
609.282,911.1
609.415,908.96
609.548,908.92
609.681,907.78
609.813,908.78
609.946,910.94
610.079,909.94
610.211,908.36
610.344,907.82
610.477,908.8
610.609,908.18
610.742,909.1
610.875,909.5
611.007,911.82
611.14,909.72
611.273,911.88
611.405,911.76
611.538,910.38
611.671,909.8
611.803,908.7
611.936,908.84
612.069,907.6
612.201,908.3
612.334,909.72
612.467,907.58
612.599,907.66
612.732,908.58
612.864,907.92
612.997,908.48
613.13,907.42
613.262,909.42
613.395,908.76
613.527,910.22
613.66,911.2
613.793,908.78
613.925,909.14
614.058,909.02
614.19,907.92
614.323,909.16
614.456,910.24
614.588,910.7
614.721,908.22
614.853,909.4
614.986,910.38
615.118,909.44
615.251,909.92
615.383,909.34
615.516,909.16
615.648,909.38
615.781,909.7
615.913,910.38
616.046,910.76
616.178,909.14
616.311,912.72
616.443,911.3
616.576,911.98
616.708,912.2
616.841,913.52
616.973,916.3
617.106,918.36
617.238,918.62
617.371,918.14
617.503,919.6
617.636,919.22
617.768,917.92
617.901,918.02
618.033,919.74
618.166,920.08
618.298,919.96
618.43,916.42
618.563,919.36
618.695,917.56
618.828,919.54
618.96,920.4
619.093,919.76
619.225,921.58
619.357,922.98
619.49,924.18
619.622,923.54
619.755,924.86
619.887,926.12
620.019,923.18
620.152,920.26
620.284,920.58
620.417,921.62
620.549,922.82
620.681,922.32
620.814,924.54
620.946,925.5
621.078,927.54
621.211,930.34
621.343,934.68
621.475,939.76
621.608,943.94
621.74,948.4
621.872,957.5
622.005,965.16
622.137,971.82
622.269,979.94
622.402,979.54
622.534,970.76
622.666,961.38
622.799,949.12
622.931,942.12
623.063,935.02
623.195,931.9
623.328,928.24
623.46,925.26
623.592,924.36
623.725,926.96
623.857,925.2
623.989,925.3
624.121,922.1
624.254,924.1
624.386,924.44
624.518,924.12
624.65,926.7
624.783,924.78
624.915,925.46
625.047,924.1
625.179,925.82
625.312,927.44
625.444,926.92
625.576,930.48
625.708,933.54
625.841,938.46
625.973,941.8
626.105,947.22
626.237,957.82
626.369,972.58
626.502,1003.34
626.634,1057.56
626.766,1154.38
626.898,1303.24
627.03,1517.1
627.163,1726.62
627.295,1779.7
627.427,1694.6
627.559,1567.74
627.691,1466.82
627.823,1404.62
627.956,1363.62
628.088,1354.44
628.22,1385.78
628.352,1510.18
628.484,1810.3
628.616,2043.52
628.748,1764.84
628.881,1501.88
629.013,1416.0
629.145,1378.42
629.277,1353.6
629.409,1322.86
629.541,1281.72
629.673,1236.54
629.805,1205.98
629.937,1181.46
630.07,1165.54
630.202,1161.16
630.334,1159.9
630.466,1152.66
630.598,1132.84
630.73,1103.32
630.862,1072.14
630.994,1033.54
631.126,1001.38
631.258,969.98
631.39,955.42
631.522,943.02
631.655,936.46
631.787,933.02
631.919,930.22
632.051,924.86
632.183,924.44
632.315,920.96
632.447,921.36
632.579,919.3
632.711,919.02
632.843,918.4
632.975,915.86
633.107,915.54
633.239,914.96
633.371,915.34
633.503,913.48
633.635,912.62
633.767,909.8
633.899,910.06
634.031,909.78
634.163,906.56
634.295,906.48
634.427,905.24
634.559,905.98
634.691,904.4
634.823,905.16
634.955,903.56
635.087,903.18
635.219,903.14
635.351,902.5
635.483,901.82
635.615,901.62
635.747,900.44
635.879,900.32
636.011,900.12
636.143,899.12
636.275,900.82
636.406,902.16
636.538,900.74
636.67,899.36
636.802,899.32
636.934,899.14
637.066,897.4
637.198,894.1
637.33,893.78
637.462,892.56
637.594,893.12
637.726,892.96
637.858,891.98
637.989,892.36
638.121,892.26
638.253,890.16
638.385,891.88
638.517,890.64
638.649,890.48
638.781,891.2
638.913,890.54
639.045,891.12
639.176,889.76
639.308,889.14
639.44,889.44
639.572,888.72
639.704,888.78
639.836,889.16
639.968,887.24
640.1,888.66
640.231,888.48
640.363,887.74
640.495,887.28
640.627,886.64
640.759,886.82
640.891,887.32
641.022,886.3
641.154,885.94
641.286,887.66
641.418,886.8
641.55,886.2
641.682,885.12
641.813,886.74
641.945,885.22
642.077,885.38
642.209,884.76
642.341,885.28
642.472,884.06
642.604,884.88
642.736,884.02
642.868,884.3
643.0,884.8
643.131,884.2
643.263,883.92
643.395,884.58
643.527,881.94
643.658,881.86
643.79,883.56
643.922,882.96
644.054,880.86
644.186,881.96
644.317,881.66
644.449,883.48
644.581,881.74
644.713,881.68
644.844,881.22
644.976,880.9
645.108,881.2
645.24,881.0
645.371,880.42
645.503,881.12
645.635,880.56
645.767,880.74
645.898,880.76
646.03,879.44
646.162,879.8
646.293,880.78
646.425,880.66
646.557,878.52
646.689,880.76
646.82,879.76
646.952,879.0
647.084,879.16
647.215,879.04
647.347,879.52
647.479,879.0
647.61,878.4
647.742,878.34
647.874,878.5
648.006,877.36
648.137,878.8
648.269,877.86
648.401,878.56
648.532,876.68
648.664,877.8
648.796,877.54
648.927,876.74
649.059,877.52
649.191,876.84
649.322,876.3
649.454,876.78
649.586,876.1
649.717,876.64
649.849,876.46
649.981,875.3
650.112,876.24
650.244,875.34
650.375,875.54
650.507,876.28
650.639,875.18
650.77,875.8
650.902,875.96
651.034,875.82
651.165,875.54
651.297,874.5
651.429,875.44
651.56,874.58
651.692,875.0
651.823,874.92
651.955,874.28
652.087,874.98
652.218,874.86
652.35,874.6
652.481,874.98
652.613,873.9
652.745,874.4
652.876,873.62
653.008,873.88
653.139,874.24
653.271,872.7
653.403,873.52
653.534,873.46
653.666,873.88
653.797,873.4
653.929,872.44
654.061,872.96
654.192,873.04
654.324,873.28
654.455,873.84
654.587,872.26
654.718,872.28
654.85,872.24
654.982,871.68
655.113,872.36
655.245,872.46
655.376,871.68
655.508,871.3
655.639,871.96
655.771,871.62
655.902,870.84
656.034,872.52
656.166,872.46
656.297,871.04
656.429,871.28
656.56,872.58
656.692,871.6
656.823,870.86
656.955,871.6
657.086,871.36
657.218,870.9
657.349,870.6
657.481,870.36
657.612,871.36
657.744,870.16
657.875,870.84
658.007,870.08
658.138,871.54
658.27,870.42
658.401,871.3
658.533,870.38
658.664,870.16
658.796,870.4
658.927,871.6
659.059,870.0
659.19,870.14
659.322,872.02
659.453,870.98
659.585,871.5
659.716,870.98
659.848,872.04
659.979,872.46
660.111,871.88
660.242,872.12
660.374,872.4
660.505,871.24
660.637,870.96
660.768,871.32
660.9,870.22
661.031,870.14
661.163,869.78
661.294,869.68
661.426,869.8
661.557,868.3
661.689,869.08
661.82,869.26
661.951,869.28
662.083,868.94
662.214,867.78
662.346,867.06
662.477,867.54
662.609,867.64
662.74,868.72
662.872,867.84
663.003,866.8
663.135,867.3
