nm,Intensity
526.553,836.48
526.69,835.24
526.827,835.74
526.963,835.76
527.1,835.52
527.237,835.96
527.373,835.8
527.51,836.2
527.647,835.46
527.784,835.62
527.92,835.92
528.057,836.12
528.194,835.82
528.33,836.44
528.467,835.8
528.603,835.66
528.74,835.82
528.877,835.14
529.013,835.46
529.15,836.16
529.286,835.8
529.423,836.02
529.56,835.94
529.696,835.82
529.833,835.24
529.969,835.54
530.106,835.82
530.242,835.46
530.379,836.08
530.515,835.16
530.652,836.42
530.788,835.22
530.925,835.84
531.061,835.82
531.198,835.56
531.334,836.5
531.47,835.24
531.607,835.32
531.743,836.26
531.88,836.34
532.016,846.4
532.152,889.14
532.289,874.14
532.425,840.82
532.562,836.28
532.698,835.88
532.834,836.0
532.971,835.66
533.107,835.58
533.243,835.74
533.38,835.72
533.516,835.36
533.652,836.98
533.789,842.36
533.925,864.2
534.061,887.82
534.197,895.92
534.334,895.92
534.47,894.72
534.606,896.08
534.742,898.4
534.879,900.02
535.015,900.98
535.151,902.66
535.287,904.44
535.423,903.84
535.56,898.68
535.696,897.2
535.832,895.86
535.968,894.76
536.104,894.6
536.24,895.18
536.376,894.48
536.513,894.72
536.649,895.22
536.785,896.28
536.921,898.16
537.057,901.66
537.193,902.44
537.329,900.8
537.465,900.78
537.601,898.52
537.737,898.32
537.873,898.9
538.009,898.42
538.145,897.78
538.281,898.2
538.417,899.22
538.553,898.26
538.689,898.6
538.825,897.14
538.961,899.3
539.097,899.48
539.233,900.52
539.369,901.3
539.505,901.58
539.641,900.68
539.777,900.08
539.913,901.16
540.049,899.92
540.185,900.62
540.321,901.36
540.457,901.82
540.592,901.5
540.728,902.34
540.864,902.34
541.0,903.82
541.136,903.58
541.272,906.32
541.408,906.42
541.543,906.22
541.679,904.58
541.815,905.06
541.951,906.02
542.087,906.16
542.222,906.32
542.358,907.26
542.494,905.96
542.63,906.0
542.765,906.94
542.901,906.22
543.037,907.68
543.173,909.08
543.308,910.38
543.444,911.46
543.58,919.0
543.715,927.36
543.851,922.54
543.987,915.54
544.123,912.12
544.258,912.88
544.394,910.96
544.529,913.88
544.665,913.52
544.801,913.42
544.936,914.64
545.072,914.46
545.208,916.24
545.343,917.88
545.479,916.42
545.614,916.96
545.75,916.68
545.886,917.74
546.021,919.06
546.157,919.14
546.292,917.2
546.428,916.04
546.563,916.6
546.699,918.38
546.834,917.56
546.97,918.2
547.105,917.04
547.241,918.3
547.376,919.64
547.512,921.86
547.647,922.2
547.783,920.56
547.918,920.24
548.054,919.32
548.189,919.9
548.325,918.28
548.46,918.02
548.595,919.62
548.731,920.94
548.866,920.24
549.002,920.64
549.137,921.14
549.272,920.84
549.408,920.78
549.543,922.06
549.679,923.2
549.814,922.62
549.949,922.7
550.085,922.38
550.22,922.5
550.355,922.08
550.491,923.54
550.626,923.32
550.761,923.44
550.896,924.06
551.032,924.92
551.167,923.4
551.302,924.24
551.438,924.94
551.573,925.22
551.708,924.28
551.843,926.04
551.979,926.12
552.114,925.86
552.249,927.7
552.384,928.5
552.519,927.92
552.655,925.36
552.79,927.06
552.925,928.34
553.06,925.98
553.195,927.44
553.331,926.16
553.466,927.14
553.601,928.66
553.736,929.42
553.871,929.04
554.006,929.9
554.141,929.64
554.276,931.66
554.412,931.54
554.547,930.42
554.682,930.0
554.817,929.88
554.952,930.62
555.087,931.62
555.222,933.22
555.357,932.04
555.492,932.58
555.627,934.14
555.762,936.9
555.897,939.74
556.032,951.16
556.167,957.48
556.302,946.8
556.437,939.4
556.572,938.74
556.707,940.5
556.842,939.58
556.977,946.94
557.112,957.52
557.247,950.62
557.382,941.26
557.517,939.7
557.652,938.52
557.787,937.5
557.922,937.76
558.057,937.22
558.192,935.6
558.327,937.22
558.462,938.18
558.596,936.7
558.731,936.56
558.866,938.7
559.001,939.92
559.136,936.8
559.271,939.0
559.406,939.0
559.54,940.26
559.675,940.4
559.81,940.0
559.945,941.22
560.08,942.46
560.215,944.2
560.349,943.82
560.484,942.94
560.619,942.4
560.754,943.88
560.889,943.6
561.023,945.8
561.158,951.16
561.293,953.02
561.428,947.6
561.562,945.08
561.697,943.96
561.832,944.64
561.966,948.0
562.101,950.22
562.236,948.3
562.371,945.62
562.505,943.38
562.64,945.36
562.775,945.38
562.909,947.62
563.044,948.5
563.179,952.64
563.313,953.46
563.448,953.08
563.583,951.42
563.717,949.14
563.852,950.92
563.986,949.82
564.121,950.2
564.256,951.84
564.39,948.74
564.525,951.8
564.659,950.12
564.794,951.06
564.929,951.28
565.063,951.46
565.198,951.46
565.332,953.06
565.467,953.5
565.601,953.22
565.736,953.5
565.87,952.96
566.005,953.76
566.139,956.92
566.274,955.12
566.408,955.4
566.543,955.42
566.677,956.88
566.812,963.5
566.946,967.96
567.081,967.7
567.215,965.02
567.35,963.78
567.484,965.74
567.619,962.96
567.753,958.24
567.888,956.16
568.022,956.0
568.156,956.38
568.291,955.8
568.425,956.98
568.56,958.7
568.694,958.8
568.828,961.68
568.963,964.9
569.097,967.24
569.231,967.48
569.366,960.4
569.5,959.92
569.635,962.24
569.769,959.52
569.903,962.44
570.038,963.72
570.172,962.98
570.306,964.0
570.441,963.02
570.575,964.1
570.709,964.12
570.843,963.74
570.978,963.98
571.112,964.2
571.246,963.44
571.38,965.8
571.515,965.58
571.649,970.22
571.783,966.98
571.917,968.32
572.052,967.06
572.186,968.14
572.32,969.68
572.454,973.88
572.589,982.0
572.723,989.66
572.857,981.88
572.991,974.92
573.125,972.14
573.26,972.58
573.394,973.02
573.528,975.22
573.662,978.74
573.796,979.58
573.93,976.94
574.064,975.8
574.199,973.42
574.333,974.64
574.467,973.16
574.601,973.72
574.735,972.64
574.869,973.34
575.003,972.34
575.137,974.76
575.271,973.5
575.406,975.18
575.54,974.12
575.674,974.82
575.808,976.76
575.942,978.28
576.076,980.26
576.21,987.5
576.344,985.82
576.478,986.42
576.612,986.52
576.746,991.4
576.88,999.12
577.014,1006.94
577.148,999.58
577.282,990.66
577.416,984.16
577.55,982.5
577.684,981.42
577.818,979.46
577.952,978.68
578.086,979.42
578.22,979.22
578.354,979.12
578.488,979.7
578.622,980.82
578.756,980.06
578.89,980.72
579.023,980.54
579.157,982.26
579.291,979.48
579.425,982.14
579.559,983.28
579.693,981.12
579.827,982.0
579.961,980.02
580.095,981.56
580.228,981.86
580.362,981.0
580.496,983.78
580.63,984.28
580.764,984.02
580.898,983.9
581.032,984.22
581.165,982.54
581.299,984.36
581.433,985.6
581.567,985.52
581.701,987.42
581.834,984.72
581.968,985.92
582.102,985.22
582.236,986.1
582.37,986.08
582.503,985.24
582.637,986.76
582.771,987.3
582.905,988.94
583.038,987.86
583.172,987.98
583.306,989.44
583.44,988.36
583.573,990.38
583.707,990.48
583.841,988.1
583.974,988.66
584.108,988.46
584.242,989.2
584.375,988.68
584.509,991.14
584.643,989.46
584.777,990.8
584.91,989.36
585.044,991.32
585.177,992.62
585.311,989.7
585.445,992.18
585.578,991.44
585.712,993.38
585.846,991.06
585.979,992.86
586.113,992.24
586.247,992.44
586.38,994.52
586.514,996.58
586.647,994.72
586.781,995.08
586.914,993.88
587.048,995.1
587.182,996.2
587.315,995.52
587.449,995.76
587.582,996.36
587.716,994.06
587.849,994.98
587.983,995.38
588.116,996.12
588.25,995.16
588.384,995.12
588.517,993.14
588.651,994.48
588.784,994.42
588.918,995.42
589.051,993.82
589.185,991.82
589.318,993.5
589.452,992.68
589.585,994.54
589.718,996.72
589.852,996.06
589.985,995.44
590.119,995.36
590.252,994.94
590.386,995.34
590.519,996.58
590.653,997.68
590.786,997.52
590.919,998.18
591.053,997.28
591.186,1000.16
591.32,998.9
591.453,998.42
591.586,998.66
591.72,998.84
591.853,998.84
591.987,998.58
592.12,997.84
592.253,999.32
592.387,998.5
592.52,998.38
592.653,997.56
592.787,1000.1
592.92,997.9
593.053,999.6
593.187,998.04
593.32,999.42
593.453,998.96
593.587,1000.06
593.72,1000.36
593.853,998.6
593.987,994.86
594.12,999.56
594.253,995.28
594.386,998.76
594.52,1001.54
594.653,1000.08
594.786,999.66
594.919,999.36
595.053,999.68
595.186,1001.84
595.319,1001.36
595.452,1001.1
595.586,1001.54
595.719,1004.36
595.852,1002.82
595.985,1001.48
596.119,1003.46
596.252,1001.76
596.385,1001.7
596.518,1003.84
596.651,1002.3
596.785,1002.14
596.918,1002.24
597.051,1004.52
597.184,1003.68
597.317,1004.3
597.45,1005.54
597.584,1003.48
597.717,1003.78
597.85,1004.28
597.983,1005.04
598.116,1005.62
598.249,1005.74
598.382,1005.52
598.516,1006.78
598.649,1008.36
598.782,1004.9
598.915,1009.26
599.048,1007.64
599.181,1007.36
599.314,1008.62
599.447,1008.62
599.58,1006.92
599.713,1006.94
599.847,1006.08
599.98,1006.3
600.113,1006.98
600.246,1005.48
600.379,1004.64
600.512,1005.28
600.645,1006.24
600.778,1004.52
600.911,1005.94
601.044,1004.64
601.177,1004.4
601.31,1003.46
601.443,1005.66
601.576,1005.9
601.709,1006.82
601.842,1004.76
601.975,1005.34
602.108,1004.2
602.241,1006.16
602.374,1006.54
602.507,1005.92
602.64,1006.8
602.773,1006.62
602.906,1007.94
603.039,1006.48
603.172,1007.74
603.305,1007.0
603.438,1008.14
603.571,1007.02
603.703,1009.32
603.836,1007.98
603.969,1006.78
604.102,1007.72
604.235,1005.78
604.368,1008.14
604.501,1008.38
604.634,1007.68
604.767,1007.38
604.9,1005.52
605.033,1005.22
605.165,1007.4
605.298,1005.0
605.431,1002.38
605.564,1003.4
605.697,1001.98
605.83,1004.34
605.963,1004.4
606.095,1005.0
606.228,1001.8
606.361,1002.26
606.494,1002.4
606.627,1003.98
606.76,1003.0
606.892,1003.54
607.025,1004.84
607.158,1003.54
607.291,1003.52
607.424,1003.52
607.556,1003.68
607.689,1003.68
607.822,1005.16
607.955,1005.3
608.088,1006.68
608.22,1007.44
608.353,1004.22
608.486,1005.7
608.619,1007.64
608.751,1004.6
608.884,1005.46
609.017,1006.7
609.15,1005.94
609.282,1005.78
609.415,1006.86
609.548,1006.28
609.681,1006.54
609.813,1006.7
609.946,1006.38
610.079,1004.82
610.211,1006.8
610.344,1004.62
610.477,1005.68
610.609,1005.9
610.742,1006.18
610.875,1006.34
611.007,1007.16
611.14,1006.4
611.273,1007.12
611.405,1006.18
611.538,1008.78
611.671,1007.58
611.803,1009.76
611.936,1010.22
612.069,1007.62
612.201,1007.5
612.334,1010.0
612.467,1011.26
612.599,1007.76
612.732,1010.26
612.864,1010.12
612.997,1009.94
613.13,1011.02
613.262,1012.42
613.395,1011.96
613.527,1012.4
613.66,1012.22
613.793,1013.4
613.925,1012.98
614.058,1013.8
614.19,1013.22
614.323,1011.38
614.456,1014.46
614.588,1015.02
614.721,1011.1
614.853,1014.52
614.986,1011.56
615.118,1011.92
615.251,1012.84
615.383,1011.56
615.516,1012.24
615.648,1012.58
615.781,1011.4
615.913,1012.98
616.046,1009.82
616.178,1009.86
616.311,1013.0
616.443,1011.7
616.576,1013.26
616.708,1013.4
616.841,1013.84
616.973,1011.84
617.106,1012.5
617.238,1013.78
617.371,1014.16
617.503,1013.04
617.636,1014.66
617.768,1011.24
617.901,1011.88
618.033,1013.58
618.166,1014.54
618.298,1014.64
618.43,1013.8
618.563,1012.88
618.695,1014.28
618.828,1014.86
618.96,1014.42
619.093,1014.24
619.225,1015.5
619.357,1014.42
619.49,1015.98
619.622,1014.8
619.755,1016.32
619.887,1015.82
620.019,1015.28
620.152,1012.16
620.284,1014.08
620.417,1012.78
620.549,1012.52
620.681,1013.24
620.814,1011.78
620.946,1013.62
621.078,1013.82
621.211,1012.9
621.343,1015.1
621.475,1014.16
621.608,1016.68
621.74,1019.08
621.872,1016.5
622.005,1017.84
622.137,1019.48
622.269,1020.2
622.402,1021.62
622.534,1022.24
622.666,1021.26
622.799,1022.04
622.931,1021.2
623.063,1019.4
623.195,1018.8
623.328,1019.16
623.46,1017.92
623.592,1019.84
623.725,1019.22
623.857,1014.98
623.989,1019.34
624.121,1018.6
624.254,1015.44
624.386,1018.56
624.518,1015.66
624.65,1015.9
624.783,1019.3
624.915,1016.98
625.047,1017.84
625.179,1018.06
625.312,1016.4
625.444,1018.38
625.576,1016.58
625.708,1018.04
625.841,1018.64
625.973,1017.2
626.105,1021.64
626.237,1021.52
626.369,1021.46
626.502,1024.22
626.634,1033.54
626.766,1051.56
626.898,1066.26
627.03,1070.24
627.163,1057.48
627.295,1045.42
627.427,1038.64
627.559,1038.88
627.691,1041.18
627.823,1056.66
627.956,1080.46
628.088,1089.84
628.22,1089.24
628.352,1095.24
628.484,1114.18
628.616,1127.7
628.748,1125.26
628.881,1111.5
629.013,1099.96
629.145,1090.64
629.277,1090.54
629.409,1094.02
629.541,1098.32
629.673,1092.72
629.805,1075.72
629.937,1070.44
630.07,1071.62
630.202,1072.84
630.334,1073.04
630.466,1069.9
630.598,1059.08
630.73,1050.0
630.862,1042.62
630.994,1039.86
631.126,1044.52
631.258,1060.76
631.39,1074.28
631.522,1071.12
631.655,1069.8
631.787,1069.28
631.919,1058.28
632.051,1047.68
632.183,1039.26
632.315,1030.52
632.447,1024.88
632.579,1022.9
632.711,1018.62
632.843,1018.46
632.975,1016.38
633.107,1017.52
633.239,1014.44
633.371,1013.82
633.503,1013.82
633.635,1014.74
633.767,1016.9
633.899,1013.92
634.031,1012.88
634.163,1012.66
634.295,1010.7
634.427,1011.28
634.559,1014.08
634.691,1011.04
634.823,1012.24
634.955,1011.02
635.087,1010.26
635.219,1009.48
635.351,1008.44
635.483,1010.8
635.615,1012.78
635.747,1010.94
635.879,1011.84
636.011,1009.78
636.143,1011.9
636.275,1012.8
636.406,1010.36
636.538,1011.64
636.67,1012.6
636.802,1009.66
636.934,1009.7
637.066,1010.7
637.198,1009.0
637.33,1010.62
637.462,1010.64
637.594,1009.54
637.726,1011.66
637.858,1010.9
637.989,1009.32
638.121,1010.98
638.253,1011.7
638.385,1011.32
638.517,1009.28
638.649,1007.58
638.781,1010.4
638.913,1006.1
639.045,1008.06
639.176,1009.9
639.308,1009.36
639.44,1009.06
639.572,1009.32
639.704,1009.34
639.836,1009.38
639.968,1008.6
640.1,1007.96
640.231,1008.06
640.363,1010.54
640.495,1010.2
640.627,1008.86
640.759,1009.22
640.891,1008.32
641.022,1008.9
641.154,1009.34
641.286,1007.2
641.418,1008.0
641.55,1010.6
641.682,1006.8
641.813,1009.06
641.945,1008.08
642.077,1008.34
642.209,1008.86
642.341,1005.64
642.472,1009.48
642.604,1005.28
642.736,1006.22
642.868,1005.76
643.0,1005.8
643.131,1005.98
643.263,1005.9
643.395,1005.64
643.527,1002.6
643.658,1003.42
643.79,1004.42
643.922,1002.4
644.054,1002.66
644.186,999.76
644.317,1002.46
644.449,1001.3
644.581,1002.44
644.713,999.3
644.844,1000.82
644.976,1000.98
645.108,1000.42
645.24,999.36
645.371,1000.26
645.503,1001.04
645.635,998.28
645.767,999.0
645.898,999.68
646.03,1000.24
646.162,999.02
646.293,997.36
646.425,999.64
646.557,999.44
646.689,998.6
646.82,1000.2
646.952,998.22
647.084,999.58
647.215,999.84
647.347,999.96
647.479,1002.76
647.61,1000.92
647.742,997.98
647.874,999.6
648.006,998.58
648.137,997.64
648.269,997.36
648.401,997.7
648.532,997.6
648.664,996.82
648.796,997.82
648.927,996.44
649.059,997.64
649.191,995.6
649.322,994.74
649.454,994.32
649.586,996.3
649.717,996.18
649.849,996.2
649.981,995.36
650.112,995.02
650.244,994.56
650.375,992.82
650.507,995.72
650.639,992.74
650.77,991.38
650.902,994.9
651.034,992.46
651.165,992.76
651.297,994.26
651.429,991.34
651.56,995.34
651.692,993.06
651.823,990.78
651.955,993.08
652.087,994.24
652.218,991.58
652.35,992.84
652.481,993.7
652.613,991.68
652.745,992.3
652.876,993.26
653.008,991.74
653.139,993.04
653.271,990.82
653.403,992.42
653.534,991.98
653.666,993.66
653.797,991.02
653.929,991.84
654.061,993.8
654.192,992.52
654.324,993.66
654.455,992.7
654.587,989.82
654.718,992.6
654.85,991.7
654.982,991.98
655.113,991.34
655.245,990.1
655.376,991.48
655.508,989.24
655.639,989.18
655.771,991.36
655.902,989.38
656.034,990.58
656.166,988.2
656.297,988.52
656.429,990.08
656.56,989.22
656.692,988.64
656.823,990.96
656.955,987.74
657.086,989.38
657.218,989.88
657.349,990.62
657.481,990.0
657.612,989.96
657.744,990.08
657.875,988.62
658.007,989.06
658.138,989.76
658.27,988.32
658.401,991.18
658.533,992.16
658.664,989.0
658.796,986.24
658.927,989.62
659.059,987.5
659.19,989.38
659.322,989.5
659.453,990.16
659.585,988.94
659.716,988.54
659.848,987.3
659.979,989.46
660.111,987.76
660.242,988.68
660.374,986.58
660.505,987.5
660.637,987.66
660.768,986.28
660.9,987.0
661.031,985.66
661.163,985.76
661.294,985.76
661.426,985.52
661.557,984.62
661.689,984.36
661.82,984.34
661.951,986.34
662.083,985.64
662.214,983.2
662.346,984.2
662.477,984.02
662.609,984.78
662.74,983.88
662.872,984.12
663.003,981.5
663.135,982.68
