nm,Intensity
526.553,835.32
526.69,835.66
526.827,834.96
526.963,835.5
527.1,835.32
527.237,835.54
527.373,835.58
527.51,835.18
527.647,835.08
527.784,835.48
527.92,835.54
528.057,835.02
528.194,835.14
528.33,835.42
528.467,834.84
528.603,834.9
528.74,835.34
528.877,835.74
529.013,835.38
529.15,835.38
529.286,835.66
529.423,835.46
529.56,835.38
529.696,835.1
529.833,835.36
529.969,835.0
530.106,835.48
530.242,834.86
530.379,835.74
530.515,835.36
530.652,835.4
530.788,835.4
530.925,835.82
531.061,835.58
531.198,834.86
531.334,835.2
531.47,836.1
531.607,835.12
531.743,835.76
531.88,835.24
532.016,844.52
532.152,871.9
532.289,858.8
532.425,838.02
532.562,835.76
532.698,834.96
532.834,835.44
532.971,835.06
533.107,835.6
533.243,835.52
533.38,835.36
533.516,835.42
533.652,836.92
533.789,841.38
533.925,860.44
534.061,875.6
534.197,880.1
534.334,879.02
534.47,876.92
534.606,878.26
534.742,878.22
534.879,877.94
535.015,875.96
535.151,875.58
535.287,874.42
535.423,874.76
535.56,875.2
535.696,874.78
535.832,874.4
535.968,872.14
536.104,869.68
536.24,870.38
536.376,869.24
536.513,867.3
536.649,868.2
536.785,870.1
536.921,869.26
537.057,869.22
537.193,867.88
537.329,868.56
537.465,869.12
537.601,867.08
537.737,866.34
537.873,865.56
538.009,867.36
538.145,869.1
538.281,867.56
538.417,867.72
538.553,866.24
538.689,866.02
538.825,864.98
538.961,863.86
539.097,864.4
539.233,863.5
539.369,864.08
539.505,862.82
539.641,864.8
539.777,864.38
539.913,863.38
540.049,863.38
540.185,862.9
540.321,863.36
540.457,864.84
540.592,864.14
540.728,863.14
540.864,864.64
541.0,864.6
541.136,864.62
541.272,865.98
541.408,865.02
541.543,865.2
541.679,865.06
541.815,864.46
541.951,864.58
542.087,863.92
542.222,864.72
542.358,864.06
542.494,864.4
542.63,864.82
542.765,865.16
542.901,864.64
543.037,864.6
543.173,866.06
543.308,865.6
543.444,864.44
543.58,865.86
543.715,865.68
543.851,864.78
543.987,866.12
544.123,866.3
544.258,866.8
544.394,866.48
544.529,866.26
544.665,866.16
544.801,866.88
544.936,866.04
545.072,865.68
545.208,866.64
545.343,866.84
545.479,867.02
545.614,865.24
545.75,867.14
545.886,867.58
546.021,868.84
546.157,871.0
546.292,874.36
546.428,881.76
546.563,885.68
546.699,880.98
546.834,872.98
546.97,870.76
547.105,869.1
547.241,868.46
547.376,868.0
547.512,867.42
547.647,868.86
547.783,867.58
547.918,867.34
548.054,867.94
548.189,867.94
548.325,867.22
548.46,868.4
548.595,868.38
548.731,869.74
548.866,869.68
549.002,868.96
549.137,868.46
549.272,870.42
549.408,869.98
549.543,870.7
549.679,868.98
549.814,870.22
549.949,870.36
550.085,872.18
550.22,875.7
550.355,876.78
550.491,874.24
550.626,871.22
550.761,869.72
550.896,868.5
551.032,869.48
551.167,868.94
551.302,869.08
551.438,869.24
551.573,870.64
551.708,873.34
551.843,878.18
551.979,875.58
552.114,870.9
552.249,869.28
552.384,869.46
552.519,870.06
552.655,868.36
552.79,868.56
552.925,867.88
553.06,869.84
553.195,869.12
553.331,868.62
553.466,869.58
553.601,870.98
553.736,870.22
553.871,870.4
554.006,870.76
554.141,870.02
554.276,870.8
554.412,869.7
554.547,870.84
554.682,870.3
554.817,869.52
554.952,870.0
555.087,870.44
555.222,871.1
555.357,871.94
555.492,870.16
555.627,870.54
555.762,871.82
555.897,870.8
556.032,871.68
556.167,870.52
556.302,871.16
556.437,872.14
556.572,872.16
556.707,870.96
556.842,871.58
556.977,872.28
557.112,873.14
557.247,872.36
557.382,873.02
557.517,873.96
557.652,873.84
557.787,873.56
557.922,873.52
558.057,872.18
558.192,873.96
558.327,872.94
558.462,873.62
558.596,873.46
558.731,873.42
558.866,874.74
559.001,874.52
559.136,873.32
559.271,873.38
559.406,872.14
559.54,874.46
559.675,874.02
559.81,873.42
559.945,874.42
560.08,873.24
560.215,872.2
560.349,873.44
560.484,874.58
560.619,872.56
560.754,873.86
560.889,873.26
561.023,873.54
561.158,875.82
561.293,875.62
561.428,874.94
561.562,876.68
561.697,877.12
561.832,880.1
561.966,886.72
562.101,903.98
562.236,983.94
562.371,1054.2
562.505,964.12
562.64,898.34
562.775,884.54
562.909,882.48
563.044,880.08
563.179,879.0
563.313,879.4
563.448,878.94
563.583,879.88
563.717,882.5
563.852,892.38
563.986,917.0
564.121,926.86
564.256,899.06
564.39,887.26
564.525,886.22
564.659,885.64
564.794,886.48
564.929,885.88
565.063,883.86
565.198,883.84
565.332,885.18
565.467,885.66
565.601,886.38
565.736,889.9
565.87,895.36
566.005,912.66
566.139,950.06
566.274,962.56
566.408,934.38
566.543,908.9
566.677,894.58
566.812,887.24
566.946,883.72
567.081,882.0
567.215,881.76
567.35,882.44
567.484,884.2
567.619,883.04
567.753,880.2
567.888,878.78
568.022,879.7
568.156,879.76
568.291,878.82
568.425,878.3
568.56,878.46
568.694,879.2
568.828,880.32
568.963,881.66
569.097,880.5
569.231,880.34
569.366,880.3
569.5,879.76
569.635,881.66
569.769,880.5
569.903,880.68
570.038,881.6
570.172,881.44
570.306,880.44
570.441,883.1
570.575,882.96
570.709,884.98
570.843,884.56
570.978,885.5
571.112,886.84
571.246,889.22
571.38,906.14
571.515,955.66
571.649,960.3
571.783,910.16
571.917,897.04
572.052,892.48
572.186,890.62
572.32,889.26
572.454,886.84
572.589,884.9
572.723,884.84
572.857,884.44
572.991,883.5
573.125,885.3
573.26,884.7
573.394,884.68
573.528,884.84
573.662,886.36
573.796,885.32
573.93,888.1
574.064,890.82
574.199,887.78
574.333,885.42
574.467,884.96
574.601,885.26
574.735,882.56
574.869,885.78
575.003,885.54
575.137,886.18
575.271,888.94
575.406,901.72
575.54,928.82
575.674,925.32
575.808,907.3
575.942,907.46
576.076,915.68
576.21,929.78
576.344,940.76
576.478,931.28
576.612,922.74
576.746,918.54
576.88,919.24
577.014,919.7
577.148,918.32
577.282,910.62
577.416,903.32
577.55,898.4
577.684,896.86
577.818,893.3
577.952,893.9
578.086,893.74
578.22,893.86
578.354,891.62
578.488,892.56
578.622,893.32
578.756,893.04
578.89,893.72
579.023,893.92
579.157,893.94
579.291,893.2
579.425,895.92
579.559,896.26
579.693,895.78
579.827,898.26
579.961,896.56
580.095,897.48
580.228,897.24
580.362,897.36
580.496,897.8
580.63,898.92
580.764,899.78
580.898,900.4
581.032,899.86
581.165,900.16
581.299,902.8
581.433,901.24
581.567,902.62
581.701,904.04
581.834,903.76
581.968,903.84
582.102,904.0
582.236,905.44
582.37,905.02
582.503,904.48
582.637,905.68
582.771,908.44
582.905,909.34
583.038,909.0
583.172,910.06
583.306,911.28
583.44,910.7
583.573,909.16
583.707,911.56
583.841,913.06
583.974,913.06
584.108,913.74
584.242,915.38
584.375,916.22
584.509,916.8
584.643,918.14
584.777,918.58
584.91,916.78
585.044,919.4
585.177,919.76
585.311,918.56
585.445,922.14
585.578,921.58
585.712,923.5
585.846,923.54
585.979,924.16
586.113,925.84
586.247,925.54
586.38,928.38
586.514,927.44
586.647,928.66
586.781,928.22
586.914,930.84
587.048,931.14
587.182,930.66
587.315,931.02
587.449,930.36
587.582,930.98
587.716,930.42
587.849,931.28
587.983,931.8
588.116,932.02
588.25,931.64
588.384,932.54
588.517,932.2
588.651,932.5
588.784,932.42
588.918,933.52
589.051,931.24
589.185,931.32
589.318,929.74
589.452,931.78
589.585,931.3
589.718,932.4
589.852,931.02
589.985,931.36
590.119,930.76
590.252,930.22
590.386,932.28
590.519,931.92
590.653,930.84
590.786,929.86
590.919,929.72
591.053,932.06
591.186,932.52
591.32,931.4
591.453,932.22
591.586,932.28
591.72,933.32
591.853,933.5
591.987,932.82
592.12,931.82
592.253,932.12
592.387,933.8
592.52,933.54
592.653,933.54
592.787,935.04
592.92,933.6
593.053,935.24
593.187,934.7
593.32,935.48
593.453,936.48
593.587,937.28
593.72,937.36
593.853,937.78
593.987,938.84
594.12,939.8
594.253,939.74
594.386,940.78
594.52,941.72
594.653,942.02
594.786,942.04
594.919,941.72
595.053,942.1
595.186,943.12
595.319,944.96
595.452,945.2
595.586,947.1
595.719,948.36
595.852,946.66
595.985,948.8
596.119,946.76
596.252,946.64
596.385,949.12
596.518,949.4
596.651,949.7
596.785,949.4
596.918,950.16
597.051,949.84
597.184,951.94
597.317,953.3
597.45,953.44
597.584,953.2
597.717,953.32
597.85,954.94
597.983,955.8
598.116,955.12
598.249,956.28
598.382,956.58
598.516,956.72
598.649,957.8
598.782,957.98
598.915,960.22
599.048,961.44
599.181,960.32
599.314,960.82
599.447,961.88
599.58,961.72
599.713,964.48
599.847,964.72
599.98,963.68
600.113,965.98
600.246,962.62
600.379,963.74
600.512,963.54
600.645,964.12
600.778,964.56
600.911,964.28
601.044,962.58
601.177,964.68
601.31,964.12
601.443,965.14
601.576,964.0
601.709,964.74
601.842,967.86
601.975,965.8
602.108,967.34
602.241,968.96
602.374,968.98
602.507,969.74
602.64,969.32
602.773,970.58
602.906,967.04
603.039,970.82
603.172,968.44
603.305,968.8
603.438,971.7
603.571,969.92
603.703,971.52
603.836,971.2
603.969,971.02
604.102,972.0
604.235,973.22
604.368,971.16
604.501,970.56
604.634,969.52
604.767,969.66
604.9,968.14
605.033,968.84
605.165,967.7
605.298,966.36
605.431,965.58
605.564,964.7
605.697,963.36
605.83,966.88
605.963,966.7
606.095,965.4
606.228,962.78
606.361,965.58
606.494,965.14
606.627,964.32
606.76,961.32
606.892,963.46
607.025,964.78
607.158,961.68
607.291,963.48
607.424,961.3
607.556,963.92
607.689,961.98
607.822,961.32
607.955,962.36
608.088,962.28
608.22,958.8
608.353,959.86
608.486,960.04
608.619,959.92
608.751,960.34
608.884,958.5
609.017,961.64
609.15,958.46
609.282,958.36
609.415,958.56
609.548,957.04
609.681,956.5
609.813,957.1
609.946,955.6
610.079,955.32
610.211,956.86
610.344,955.92
610.477,954.6
610.609,955.96
610.742,956.78
610.875,955.1
611.007,954.32
611.14,954.38
611.273,955.72
611.405,955.12
611.538,956.38
611.671,951.96
611.803,954.26
611.936,953.76
612.069,952.98
612.201,952.56
612.334,953.58
612.467,951.62
612.599,953.64
612.732,954.32
612.864,952.16
612.997,951.64
613.13,951.72
613.262,951.04
613.395,950.52
613.527,951.62
613.66,950.98
613.793,949.44
613.925,951.94
614.058,950.06
614.19,951.4
614.323,950.6
614.456,951.2
614.588,951.04
614.721,951.84
614.853,949.78
614.986,949.32
615.118,949.8
615.251,946.04
615.383,948.54
615.516,948.4
615.648,947.16
615.781,945.88
615.913,946.64
616.046,947.16
616.178,946.96
616.311,945.62
616.443,945.88
616.576,945.34
616.708,945.14
616.841,945.52
616.973,945.94
617.106,944.68
617.238,947.34
617.371,944.84
617.503,945.3
617.636,944.7
617.768,943.66
617.901,944.04
618.033,945.14
618.166,942.86
618.298,943.06
618.43,943.62
618.563,943.24
618.695,938.38
618.828,942.18
618.96,940.7
619.093,940.36
619.225,939.24
619.357,938.26
619.49,939.18
619.622,938.44
619.755,940.52
619.887,941.3
620.019,939.0
620.152,937.02
620.284,937.56
620.417,938.62
620.549,936.06
620.681,935.7
620.814,938.44
620.946,938.42
621.078,940.32
621.211,940.96
621.343,942.6
621.475,943.72
621.608,943.02
621.74,948.16
621.872,947.66
622.005,952.16
622.137,955.74
622.269,957.44
622.402,957.72
622.534,955.5
622.666,949.14
622.799,945.52
622.931,942.16
623.063,940.08
623.195,939.3
623.328,938.18
623.46,934.72
623.592,935.46
623.725,935.32
623.857,935.16
623.989,932.66
624.121,933.74
624.254,933.16
624.386,933.78
624.518,931.64
624.65,933.18
624.783,934.1
624.915,934.06
625.047,933.52
625.179,934.9
625.312,932.86
625.444,934.58
625.576,934.46
625.708,937.36
625.841,935.84
625.973,938.28
626.105,943.18
626.237,945.7
626.369,952.84
626.502,964.72
626.634,984.16
626.766,1027.84
626.898,1089.32
627.03,1180.22
627.163,1261.38
627.295,1286.16
627.427,1248.54
627.559,1200.58
627.691,1164.1
627.823,1133.14
627.956,1117.26
628.088,1112.48
628.22,1119.98
628.352,1156.64
628.484,1241.72
628.616,1284.94
628.748,1206.58
628.881,1144.54
629.013,1127.32
629.145,1118.72
629.277,1110.04
629.409,1098.66
629.541,1082.84
629.673,1066.7
629.805,1054.98
629.937,1042.98
630.07,1040.52
630.202,1036.58
630.334,1037.14
630.466,1034.62
630.598,1027.0
630.73,1015.54
630.862,999.5
630.994,985.24
631.126,967.12
631.258,955.06
631.39,948.76
631.522,943.14
631.655,941.2
631.787,940.52
631.919,937.2
632.051,935.14
632.183,935.38
632.315,933.82
632.447,931.2
632.579,934.3
632.711,930.1
632.843,930.2
632.975,931.12
633.107,931.6
633.239,930.04
633.371,931.22
633.503,931.18
633.635,929.44
633.767,928.6
633.899,928.5
634.031,928.7
634.163,928.28
634.295,926.34
634.427,928.22
634.559,927.12
634.691,927.4
634.823,928.1
634.955,928.9
635.087,927.26
635.219,925.88
635.351,925.34
635.483,925.38
635.615,926.9
635.747,926.54
635.879,926.04
636.011,927.22
636.143,924.08
636.275,925.48
636.406,925.88
636.538,924.58
636.67,926.04
636.802,926.0
636.934,925.76
637.066,923.7
637.198,925.46
637.33,924.14
637.462,922.8
637.594,922.58
637.726,920.92
637.858,925.4
637.989,924.26
638.121,924.6
638.253,924.52
638.385,924.6
638.517,923.36
638.649,924.34
638.781,923.38
638.913,922.64
639.045,923.2
639.176,923.8
639.308,921.4
639.44,924.58
639.572,924.22
639.704,923.08
639.836,922.08
639.968,922.9
640.1,923.16
640.231,921.32
640.363,921.54
640.495,923.26
640.627,922.78
640.759,922.22
640.891,923.04
641.022,921.4
641.154,923.22
641.286,923.9
641.418,924.74
641.55,924.1
641.682,921.96
641.813,923.48
641.945,924.32
642.077,922.38
642.209,922.14
642.341,921.06
642.472,922.32
642.604,923.62
642.736,921.98
642.868,921.8
643.0,922.5
643.131,922.54
643.263,921.24
643.395,922.56
643.527,921.84
643.658,923.32
643.79,921.96
643.922,922.82
644.054,921.3
644.186,920.9
644.317,921.8
644.449,921.24
644.581,920.3
644.713,920.94
644.844,921.04
644.976,921.22
645.108,921.4
645.24,919.72
645.371,919.44
645.503,921.4
645.635,919.48
645.767,919.84
645.898,921.22
646.03,921.12
646.162,922.0
646.293,920.52
646.425,922.34
646.557,922.0
646.689,919.84
646.82,922.46
646.952,922.32
647.084,921.48
647.215,921.42
647.347,924.08
647.479,921.96
647.61,922.02
647.742,921.74
647.874,921.98
648.006,921.74
648.137,923.24
648.269,922.84
648.401,922.42
648.532,922.04
648.664,922.6
648.796,923.56
648.927,925.44
649.059,925.08
649.191,925.04
649.322,927.02
649.454,929.98
649.586,931.86
649.717,934.24
649.849,936.14
649.981,934.68
650.112,935.98
650.244,932.46
650.375,931.62
650.507,932.34
650.639,930.36
650.77,928.96
650.902,929.1
651.034,926.54
651.165,926.86
651.297,925.4
651.429,925.2
651.56,925.16
651.692,925.78
651.823,926.0
651.955,926.3
652.087,927.56
652.218,925.54
652.35,927.32
652.481,928.9
652.613,929.44
652.745,931.64
652.876,933.12
653.008,935.66
653.139,936.3
653.271,939.8
653.403,946.42
653.534,948.38
653.666,949.52
653.797,946.76
653.929,946.08
654.061,939.9
654.192,937.26
654.324,933.44
654.455,931.34
654.587,928.28
654.718,926.06
654.85,924.18
654.982,925.06
655.113,923.1
655.245,922.86
655.376,919.7
655.508,919.2
655.639,921.52
655.771,919.46
655.902,917.56
656.034,917.9
656.166,917.16
656.297,916.9
656.429,917.26
656.56,917.24
656.692,916.52
656.823,916.6
656.955,917.04
657.086,917.16
657.218,915.76
657.349,916.5
657.481,916.08
657.612,916.1
657.744,916.38
657.875,915.56
658.007,916.5
658.138,915.14
658.27,915.94
658.401,915.14
658.533,914.24
658.664,914.2
658.796,914.48
658.927,915.44
659.059,915.76
659.19,914.72
659.322,913.32
659.453,914.86
659.585,913.58
659.716,913.3
659.848,912.44
659.979,912.0
660.111,913.78
660.242,913.28
660.374,913.42
660.505,910.68
660.637,912.6
660.768,911.7
660.9,910.28
661.031,908.54
661.163,910.94
661.294,910.66
661.426,908.48
661.557,908.94
661.689,909.48
661.82,907.46
661.951,908.8
662.083,907.92
662.214,906.14
662.346,906.38
662.477,903.68
662.609,906.8
662.74,904.84
662.872,902.34
663.003,904.46
663.135,904.66
