nm,Intensity
526.505,828.22
526.642,828.48
526.778,828.52
526.915,828.3
527.052,829.2
527.188,828.48
527.325,828.4
527.462,827.94
527.598,827.94
527.735,828.12
527.872,828.38
528.008,828.04
528.145,828.08
528.282,828.84
528.418,828.16
528.555,828.52
528.691,828.48
528.828,828.0
528.965,828.44
529.101,828.06
529.238,828.78
529.374,828.78
529.511,828.92
529.647,828.26
529.784,828.1
529.92,828.12
530.057,828.46
530.193,828.52
530.33,828.3
530.466,828.6
530.603,828.84
530.739,828.56
530.876,827.92
531.012,828.6
531.149,828.4
531.285,828.26
531.421,828.88
531.558,828.7
531.694,827.82
531.831,828.4
531.967,831.3
532.103,856.14
532.24,872.06
532.376,839.9
532.513,829.62
532.649,828.22
532.785,828.76
532.922,828.66
533.058,828.36
533.194,828.28
533.331,828.76
533.467,828.24
533.603,829.76
533.739,836.06
533.876,871.6
534.012,934.96
534.148,964.04
534.284,966.5
534.421,960.26
534.557,954.38
534.693,953.64
534.829,949.04
534.966,941.22
535.102,935.36
535.238,924.94
535.374,914.92
535.51,908.68
535.647,902.16
535.783,896.56
535.919,894.52
536.055,891.52
536.191,890.88
536.327,887.36
536.464,885.76
536.6,881.46
536.736,880.96
536.872,880.28
537.008,879.48
537.144,879.78
537.28,879.46
537.416,877.8
537.552,877.98
537.688,879.98
537.824,880.42
537.961,880.36
538.097,879.08
538.233,879.52
538.369,878.78
538.505,877.36
538.641,876.2
538.777,875.68
538.913,875.46
539.049,872.9
539.185,871.82
539.321,871.66
539.457,868.82
539.592,868.92
539.728,867.44
539.864,868.26
540.0,867.34
540.136,866.1
540.272,864.94
540.408,863.74
540.544,863.52
540.68,863.3
540.816,863.78
540.952,862.74
541.087,863.26
541.223,863.5
541.359,862.92
541.495,862.68
541.631,862.8
541.767,864.1
541.903,862.82
542.038,864.46
542.174,863.08
542.31,862.12
542.446,864.26
542.582,863.6
542.717,862.96
542.853,864.46
542.989,863.14
543.125,863.72
543.26,863.28
543.396,864.36
543.532,864.38
543.668,865.08
543.803,865.32
543.939,864.56
544.075,866.04
544.21,868.02
544.346,868.64
544.482,871.0
544.617,872.16
544.753,872.84
544.889,874.04
545.024,875.58
545.16,875.82
545.296,877.38
545.431,873.32
545.567,871.12
545.703,868.5
545.838,865.34
545.974,864.6
546.109,863.18
546.245,863.0
546.381,862.52
546.516,862.56
546.652,862.28
546.787,861.52
546.923,862.06
547.058,860.98
547.194,862.52
547.329,862.3
547.465,862.08
547.6,862.6
547.736,861.5
547.871,862.92
548.007,862.24
548.142,861.3
548.278,861.88
548.413,863.16
548.549,862.96
548.684,862.24
548.82,863.72
548.955,864.22
549.091,865.36
549.226,865.9
549.361,866.78
549.497,869.22
549.632,871.92
549.768,872.36
549.903,874.8
550.038,875.1
550.174,874.5
550.309,873.48
550.444,871.16
550.58,867.22
550.715,868.36
550.85,866.2
550.986,864.48
551.121,862.96
551.256,863.04
551.392,862.64
551.527,862.88
551.662,862.68
551.798,862.08
551.933,861.4
552.068,862.3
552.203,862.02
552.339,861.52
552.474,861.6
552.609,862.06
552.744,862.02
552.88,863.08
553.015,863.6
553.15,862.88
553.285,865.84
553.42,866.42
553.556,866.84
553.691,867.2
553.826,865.62
553.961,866.98
554.096,866.2
554.231,867.56
554.367,866.72
554.502,869.3
554.637,868.28
554.772,870.08
554.907,869.84
555.042,870.04
555.177,869.36
555.312,868.44
555.448,869.72
555.583,870.04
555.718,871.2
555.853,871.04
555.988,872.38
556.123,872.38
556.258,872.36
556.393,873.3
556.528,872.7
556.663,873.16
556.798,875.08
556.933,875.66
557.068,876.86
557.203,876.82
557.338,878.62
557.473,879.02
557.608,878.46
557.743,880.02
557.878,879.44
558.013,878.9
558.148,881.82
558.283,880.78
558.418,880.9
558.553,879.62
558.688,880.52
558.822,878.8
558.957,877.42
559.092,877.92
559.227,878.14
559.362,877.76
559.497,876.98
559.632,876.62
559.767,876.4
559.902,876.26
560.036,875.88
560.171,875.2
560.306,875.64
560.441,873.76
560.576,874.32
560.711,874.22
560.845,874.06
560.98,875.06
561.115,875.08
561.25,875.5
561.385,876.12
561.519,877.78
561.654,875.4
561.789,876.92
561.924,878.0
562.058,878.9
562.193,880.28
562.328,879.06
562.463,881.22
562.597,883.36
562.732,884.62
562.867,884.88
563.001,886.3
563.136,889.64
563.271,890.78
563.406,892.78
563.54,895.78
563.675,901.28
563.81,920.06
563.944,982.48
564.079,1063.68
564.213,1020.88
564.348,940.0
564.483,920.94
564.617,919.48
564.752,918.22
564.887,914.9
565.021,909.18
565.156,906.32
565.29,900.8
565.425,899.68
565.56,903.54
565.694,904.74
565.829,915.56
565.963,943.22
566.098,1018.34
566.232,1068.48
566.367,997.18
566.501,931.56
566.636,908.38
566.77,900.8
566.905,899.32
567.039,894.68
567.174,895.78
567.308,898.16
567.443,911.58
567.577,916.84
567.712,901.12
567.846,891.26
567.981,888.56
568.115,886.68
568.25,886.66
568.384,886.6
568.518,887.52
568.653,887.0
568.787,887.12
568.922,887.18
569.056,888.72
569.191,889.28
569.325,889.08
569.459,890.18
569.594,891.72
569.728,889.56
569.862,891.32
569.997,890.38
570.131,894.66
570.265,895.16
570.4,895.86
570.534,900.04
570.668,904.3
570.803,907.72
570.937,908.5
571.071,912.76
571.206,921.14
571.34,946.32
571.474,1063.6
571.609,1210.56
571.743,1076.12
571.877,975.86
572.011,950.34
572.146,936.76
572.28,927.22
572.414,919.04
572.548,911.38
572.683,907.94
572.817,901.98
572.951,900.94
573.085,898.88
573.219,901.14
573.354,901.34
573.488,900.64
573.622,900.1
573.756,904.94
573.89,911.78
574.025,916.9
574.159,913.56
574.293,904.88
574.427,900.38
574.561,899.06
574.695,898.06
574.829,899.48
574.964,899.72
575.098,901.46
575.232,906.76
575.366,920.78
575.5,962.1
575.634,1010.56
575.768,985.22
575.902,973.36
576.036,1003.52
576.17,1071.9
576.304,1157.7
576.438,1157.32
576.573,1092.16
576.707,1058.12
576.841,1056.1
576.975,1061.3
577.109,1059.12
577.243,1036.54
577.377,1003.32
577.511,966.72
577.645,946.66
577.779,933.58
577.913,925.88
578.047,919.7
578.181,920.48
578.315,918.6
578.449,914.86
578.583,913.68
578.716,915.44
578.85,914.2
578.984,914.94
579.118,915.1
579.252,915.22
579.386,915.88
579.52,918.02
579.654,916.44
579.788,918.3
579.922,918.66
580.056,916.68
580.19,918.12
580.323,918.6
580.457,916.78
580.591,917.94
580.725,918.76
580.859,918.84
580.993,918.94
581.127,917.22
581.26,919.82
581.394,920.9
581.528,922.2
581.662,920.58
581.796,923.26
581.929,923.4
582.063,922.72
582.197,923.06
582.331,924.46
582.465,924.02
582.598,922.66
582.732,922.84
582.866,923.08
583.0,923.64
583.133,923.02
583.267,922.86
583.401,921.68
583.535,925.0
583.668,923.88
583.802,921.58
583.936,924.34
584.07,923.24
584.203,923.98
584.337,922.28
584.471,922.4
584.604,921.16
584.738,922.5
584.872,922.68
585.005,923.66
585.139,923.52
585.273,926.26
585.406,924.62
585.54,924.18
585.674,925.84
585.807,926.02
585.941,925.44
586.074,923.16
586.208,925.52
586.342,924.84
586.475,924.86
586.609,924.62
586.742,925.46
586.876,926.2
587.01,926.82
587.143,926.98
587.277,927.36
587.41,926.18
587.544,927.46
587.678,928.6
587.811,929.92
587.945,927.0
588.078,927.84
588.212,927.74
588.345,929.38
588.479,929.8
588.612,928.72
588.746,929.16
588.879,930.2
589.013,931.36
589.146,929.76
589.28,930.34
589.413,930.54
589.547,929.06
589.68,931.5
589.814,930.1
589.947,929.94
590.081,932.12
590.214,931.8
590.347,932.84
590.481,932.96
590.614,934.34
590.748,933.74
590.881,934.8
591.015,933.0
591.148,934.94
591.281,935.38
591.415,934.42
591.548,935.78
591.682,934.04
591.815,934.38
591.948,935.92
592.082,933.9
592.215,937.62
592.348,934.54
592.482,936.32
592.615,935.04
592.748,934.66
592.882,935.24
593.015,935.18
593.148,935.68
593.282,936.24
593.415,935.38
593.548,936.56
593.682,935.86
593.815,935.88
593.948,935.98
594.082,935.72
594.215,937.56
594.348,937.76
594.481,937.92
594.615,937.26
594.748,939.0
594.881,939.62
595.014,940.08
595.148,938.18
595.281,941.78
595.414,941.22
595.547,940.66
595.681,942.14
595.814,940.54
595.947,943.72
596.08,942.74
596.213,944.22
596.347,944.54
596.48,944.58
596.613,946.86
596.746,944.74
596.879,946.4
597.013,947.0
597.146,948.48
597.279,949.26
597.412,949.1
597.545,950.38
597.678,951.88
597.811,952.82
597.945,952.0
598.078,952.7
598.211,953.08
598.344,955.08
598.477,957.7
598.61,956.72
598.743,956.46
598.876,956.54
599.01,959.3
599.143,961.48
599.276,959.66
599.409,963.64
599.542,963.48
599.675,962.82
599.808,963.26
599.941,965.52
600.074,965.4
600.207,963.18
600.34,965.14
600.473,965.16
600.606,964.46
600.739,966.02
600.872,965.02
601.005,965.96
601.138,966.82
601.271,967.58
601.404,966.46
601.537,968.04
601.67,969.14
601.803,970.04
601.936,974.14
602.069,976.38
602.202,976.66
602.335,977.26
602.468,975.86
602.601,973.48
602.734,974.08
602.867,973.14
603.0,971.62
603.133,973.18
603.266,973.32
603.399,971.72
603.532,974.1
603.665,974.32
603.798,975.7
603.93,975.72
604.063,974.58
604.196,977.62
604.329,976.2
604.462,975.64
604.595,973.82
604.728,975.2
604.861,973.62
604.994,974.14
605.126,972.52
605.259,971.66
605.392,970.54
605.525,971.74
605.658,970.06
605.791,967.88
605.924,969.56
606.056,969.36
606.189,968.92
606.322,969.78
606.455,971.02
606.588,967.68
606.72,970.34
606.853,967.96
606.986,968.7
607.119,968.64
607.252,970.86
607.384,970.96
607.517,968.78
607.65,967.26
607.783,970.92
607.915,969.3
608.048,968.86
608.181,972.06
608.314,970.48
608.446,970.38
608.579,970.92
608.712,971.0
608.845,970.84
608.977,970.38
609.11,969.16
609.243,970.54
609.376,969.12
609.508,970.18
609.641,969.14
609.774,970.78
609.906,971.1
610.039,969.54
610.172,969.26
610.304,970.48
610.437,968.64
610.57,968.66
610.702,971.26
610.835,971.84
610.968,971.7
611.1,972.68
611.233,972.8
611.366,970.3
611.498,969.36
611.631,968.26
611.764,968.82
611.896,968.5
612.029,969.76
612.162,968.84
612.294,968.72
612.427,968.34
612.559,967.06
612.692,967.72
612.825,969.12
612.957,969.08
613.09,972.42
613.222,968.14
613.355,970.56
613.487,969.16
613.62,969.16
613.753,969.32
613.885,969.36
614.018,969.12
614.15,969.14
614.283,968.3
614.415,967.02
614.548,966.24
614.68,967.52
614.813,966.12
614.945,966.82
615.078,965.96
615.211,966.42
615.343,964.98
615.476,966.14
615.608,965.72
615.741,965.06
615.873,964.4
616.006,965.96
616.138,966.86
616.27,966.56
616.403,966.46
616.535,966.8
616.668,968.52
616.8,968.0
616.933,971.7
617.065,974.78
617.198,975.64
617.33,974.0
617.463,975.08
617.595,972.86
617.728,975.98
617.86,973.8
617.992,975.2
618.125,976.76
618.257,976.58
618.39,975.58
618.522,975.34
618.654,971.96
618.787,970.54
618.919,974.18
619.052,971.76
619.184,971.76
619.316,974.64
619.449,977.16
619.581,977.18
619.714,978.74
619.846,978.54
619.978,978.6
620.111,973.88
620.243,973.12
620.375,974.16
620.508,975.3
620.64,977.4
620.772,978.04
620.905,980.88
621.037,984.22
621.169,985.64
621.302,989.66
621.434,993.94
621.566,1002.26
621.699,1009.96
621.831,1020.56
621.963,1031.9
622.096,1045.12
622.228,1055.06
622.36,1060.66
622.492,1053.1
622.625,1044.02
622.757,1026.12
622.889,1008.52
623.022,998.1
623.154,991.84
623.286,984.36
623.418,978.82
623.551,976.74
623.683,973.74
623.815,974.46
623.947,972.02
624.08,969.46
624.212,970.16
624.344,971.48
624.476,969.16
624.609,969.4
624.741,970.94
624.873,969.9
625.005,968.66
625.137,975.16
625.27,972.84
625.402,977.14
625.534,980.26
625.666,982.74
625.798,989.92
625.931,995.72
626.063,1003.5
626.195,1013.34
626.327,1033.0
626.459,1068.06
626.592,1131.26
626.724,1246.18
626.856,1457.16
626.988,1780.98
627.12,2148.2
627.252,2354.58
627.384,2293.94
627.517,2112.72
627.649,1944.76
627.781,1831.12
627.913,1752.22
628.045,1714.04
628.177,1731.7
628.309,1850.24
628.441,2164.84
628.574,2593.34
628.706,2461.08
628.838,2039.72
628.97,1842.86
629.102,1782.54
629.234,1736.48
629.366,1698.94
629.498,1643.4
629.63,1580.46
629.762,1523.26
629.895,1475.78
630.027,1445.52
630.159,1435.06
630.291,1425.3
630.423,1419.94
630.555,1399.8
630.687,1363.0
630.819,1314.44
630.951,1253.7
631.083,1179.0
631.215,1118.24
631.347,1074.98
631.479,1047.84
631.611,1034.32
631.743,1023.5
631.875,1012.66
632.007,1001.04
632.139,992.74
632.271,986.26
632.403,978.64
632.535,972.94
632.667,968.56
632.799,964.44
632.931,960.96
633.063,957.24
633.195,956.76
633.327,952.22
633.459,950.92
633.591,949.52
633.723,946.4
633.855,944.14
633.987,944.8
634.119,941.28
634.251,940.72
634.383,938.84
634.515,938.66
634.647,936.42
634.779,936.14
634.911,934.16
635.043,933.38
635.175,933.24
635.307,930.48
635.439,931.44
635.571,930.64
635.703,930.9
635.835,929.42
635.966,928.72
636.098,928.12
636.23,928.02
636.362,927.62
636.494,925.64
636.626,926.0
636.758,924.66
636.89,925.68
637.022,923.84
637.154,922.94
637.285,919.84
637.417,921.68
637.549,919.3
637.681,918.24
637.813,916.78
637.945,918.64
638.077,917.2
638.209,916.88
638.34,915.66
638.472,915.66
638.604,913.96
638.736,914.3
638.868,914.26
639.0,913.84
639.132,913.06
639.263,913.84
639.395,913.86
639.527,912.58
639.659,911.86
639.791,913.26
639.923,913.4
640.054,911.52
640.186,912.54
640.318,912.42
640.45,910.76
640.582,913.04
640.713,911.34
640.845,911.74
640.977,911.38
641.109,909.02
641.241,910.62
641.372,910.7
641.504,910.98
641.636,911.14
641.768,908.26
641.9,908.96
642.031,908.08
642.163,910.0
642.295,908.98
642.427,909.62
642.558,910.0
642.69,907.96
642.822,905.94
642.954,907.52
643.086,907.0
643.217,906.74
643.349,906.62
643.481,907.98
643.613,905.76
643.744,906.34
643.876,905.46
644.008,905.78
644.139,906.62
644.271,906.58
644.403,904.54
644.535,906.5
644.666,906.76
644.798,905.62
644.93,904.98
645.062,904.84
645.193,905.0
645.325,905.32
645.457,905.1
645.588,904.5
645.72,905.9
645.852,903.46
645.983,904.76
646.115,904.64
646.247,904.3
646.378,905.12
646.51,905.52
646.642,904.24
646.774,904.74
646.905,905.06
647.037,904.58
647.169,904.26
647.3,905.16
647.432,905.36
647.564,904.2
647.695,905.34
647.827,905.7
647.958,905.94
648.09,902.02
648.222,905.62
648.353,903.86
648.485,904.92
648.617,904.56
648.748,903.8
648.88,904.84
649.012,905.84
649.143,904.58
649.275,903.62
649.406,905.54
649.538,903.76
649.67,904.6
649.801,903.5
649.933,901.76
650.065,903.58
650.196,902.74
650.328,902.9
650.459,903.2
650.591,904.22
650.723,904.02
650.854,905.3
650.986,903.9
651.117,905.52
651.249,902.74
651.381,905.34
651.512,903.62
651.644,904.28
651.775,906.2
651.907,904.02
652.038,905.68
652.17,904.66
652.302,905.08
652.433,905.22
652.565,903.58
652.696,904.96
652.828,906.24
652.959,904.5
653.091,906.8
653.222,907.36
653.354,905.5
653.486,905.88
653.617,906.64
653.749,905.36
653.88,905.7
654.012,905.36
654.143,906.22
654.275,905.96
654.406,906.32
654.538,906.14
654.669,906.88
654.801,906.48
654.932,905.56
655.064,907.18
655.195,907.7
655.327,906.82
655.458,905.16
655.59,906.74
655.721,907.42
655.853,908.44
655.984,906.98
656.116,908.04
656.247,907.0
656.379,907.74
656.51,907.2
656.642,908.18
656.773,908.14
656.905,908.74
657.036,908.06
657.168,907.96
657.299,908.82
657.431,908.42
657.562,908.58
657.694,907.3
657.825,906.98
657.957,906.42
658.088,907.78
658.22,908.36
658.351,909.6
658.482,907.36
658.614,909.48
658.745,908.2
658.877,907.02
659.008,909.86
659.14,909.26
659.271,909.88
659.403,909.36
659.534,910.06
659.666,909.14
659.797,910.78
659.928,911.44
660.06,911.76
660.191,912.2
660.323,909.88
660.454,911.56
660.586,909.5
660.717,909.6
660.848,907.96
660.98,907.42
661.111,907.0
661.243,907.44
661.374,908.3
661.505,906.64
661.637,907.34
661.768,906.64
661.9,907.58
662.031,904.56
662.162,905.84
662.294,905.5
662.425,904.22
662.557,903.84
662.688,906.04
662.819,905.34
662.951,904.7
663.082,905.72
