nm,Intensity
526.547,832.25
526.684,832.75
526.821,832.85
526.958,832.7
527.095,833.4
527.232,832.95
527.368,833.25
527.505,831.9
527.642,832.45
527.779,833.35
527.916,832.75
528.052,832.3
528.189,832.1
528.326,832.05
528.463,831.3
528.599,833.25
528.736,832.85
528.873,831.6
529.009,832.55
529.146,831.75
529.283,832.6
529.419,832.65
529.556,832.35
529.693,832.5
529.829,831.95
529.966,832.55
530.103,832.45
530.239,831.45
530.376,831.6
530.512,831.9
530.649,831.9
530.785,832.6
530.922,832.9
531.059,833.25
531.195,832.6
531.332,832.05
531.468,833.4
531.605,832.2
531.741,832.7
531.878,832.1
532.014,833.95
532.151,843.3
532.287,841.4
532.423,832.45
532.56,831.9
532.696,832.1
532.833,831.5
532.969,832.6
533.106,831.8
533.242,832.2
533.378,832.65
533.515,832.55
533.651,832.25
533.787,839.05
533.924,853.6
534.06,872.0
534.196,875.05
534.333,873.4
534.469,869.25
534.605,870.15
534.742,873.9
534.878,878.35
535.014,881.75
535.15,886.45
535.287,882.55
535.423,876.45
535.559,865.55
535.695,858.8
535.832,856.9
535.968,852.55
536.104,852.2
536.24,849.8
536.376,850.0
536.513,850.35
536.649,853.35
536.785,856.6
536.921,861.3
537.057,868.05
537.193,869.05
537.329,864.25
537.465,861.4
537.602,854.7
537.738,853.45
537.874,850.0
538.01,849.95
538.146,849.9
538.282,850.6
538.418,850.9
538.554,850.35
538.69,848.9
538.826,848.95
538.962,851.1
539.098,853.45
539.234,858.35
539.37,858.2
539.506,858.85
539.642,854.1
539.778,852.65
539.914,849.65
540.05,847.35
540.186,847.35
540.322,845.9
540.458,846.6
540.594,845.4
540.729,846.0
540.865,845.85
541.001,845.9
541.137,848.35
541.273,851.25
541.409,851.05
541.545,851.25
541.68,847.5
541.816,846.95
541.952,846.65
542.088,846.2
542.224,845.2
542.36,845.15
542.495,843.7
542.631,843.8
542.767,844.4
542.903,845.45
543.038,846.85
543.174,846.8
543.31,849.3
543.446,856.9
543.581,877.6
543.717,901.45
543.853,890.05
543.988,865.85
544.124,856.3
544.26,851.05
544.395,849.5
544.531,848.0
544.667,846.4
544.802,847.5
544.938,848.85
545.074,850.65
545.209,856.1
545.345,864.8
545.481,863.9
545.616,857.3
545.752,851.2
545.887,849.05
546.023,845.8
546.158,844.95
546.294,845.2
546.43,844.85
546.565,844.5
546.701,845.5
546.836,845.55
546.972,845.1
547.107,846.35
547.243,848.7
547.378,852.8
547.514,857.9
547.649,856.4
547.785,854.5
547.92,850.15
548.056,847.25
548.191,846.5
548.326,845.75
548.462,844.7
548.597,843.65
548.733,844.05
548.868,843.1
549.004,843.0
549.139,842.9
549.274,842.35
549.41,840.95
549.545,841.55
549.68,842.55
549.816,843.35
549.951,843.25
550.086,841.45
550.222,843.3
550.357,842.0
550.492,841.25
550.628,842.1
550.763,842.25
550.898,841.85
551.034,841.85
551.169,841.05
551.304,844.1
551.439,842.65
551.575,841.75
551.71,842.35
551.845,842.75
551.98,842.15
552.116,841.4
552.251,842.65
552.386,842.15
552.521,843.1
552.656,843.05
552.792,842.4
552.927,843.25
553.062,842.05
553.197,842.1
553.332,842.9
553.467,842.9
553.603,843.05
553.738,843.75
553.873,842.35
554.008,844.05
554.143,842.0
554.278,842.85
554.413,844.2
554.548,844.0
554.683,844.95
554.819,846.15
554.954,846.1
555.089,845.45
555.224,845.45
555.359,846.65
555.494,849.7
555.629,852.25
555.764,857.4
555.899,878.55
556.034,939.0
556.169,979.8
556.304,916.65
556.439,874.3
556.574,866.65
556.709,868.25
556.844,875.65
556.979,887.85
557.114,907.95
557.249,897.05
557.384,872.55
557.519,858.7
557.653,855.3
557.788,853.7
557.923,851.95
558.058,851.15
558.193,848.8
558.328,849.0
558.463,849.0
558.598,848.4
558.733,852.2
558.867,853.0
559.002,857.35
559.137,851.6
559.272,847.15
559.407,848.5
559.542,848.0
559.677,848.95
559.811,848.55
559.946,850.1
560.081,855.5
560.216,863.4
560.351,860.2
560.485,855.05
560.62,854.25
560.755,854.85
560.89,856.4
561.024,867.5
561.159,901.35
561.294,920.25
561.429,888.3
561.563,861.95
561.698,854.8
561.833,857.5
561.967,865.35
562.102,866.6
562.237,858.9
562.371,854.8
562.506,854.45
562.641,853.4
562.775,852.3
562.91,855.25
563.045,859.35
563.179,867.45
563.314,869.7
563.449,868.8
563.583,863.35
563.718,857.7
563.853,854.2
563.987,851.1
564.122,851.2
564.256,850.55
564.391,849.95
564.525,850.9
564.66,850.6
564.795,850.35
564.929,851.0
565.064,851.0
565.198,853.4
565.333,855.95
565.467,857.15
565.602,854.95
565.736,853.15
565.871,852.25
566.005,852.05
566.14,852.45
566.274,851.6
566.409,852.95
566.543,858.15
566.678,867.1
566.812,885.2
566.947,905.7
567.081,905.45
567.216,903.1
567.35,917.3
567.484,933.35
567.619,906.75
567.753,874.95
567.888,860.65
568.022,857.05
568.156,854.2
568.291,855.4
568.425,855.5
568.56,857.2
568.694,857.65
568.828,861.45
568.963,870.4
569.097,880.95
569.231,875.9
569.366,864.05
569.5,859.15
569.634,855.45
569.769,855.5
569.903,855.35
570.037,857.9
570.172,867.35
570.306,872.2
570.44,864.35
570.575,855.95
570.709,854.5
570.843,855.35
570.977,856.3
571.112,856.15
571.246,857.4
571.38,859.45
571.514,861.75
571.649,865.15
571.783,867.65
571.917,872.65
572.051,866.25
572.185,862.45
572.32,867.8
572.454,880.9
572.588,909.1
572.722,935.35
572.856,915.8
572.991,882.4
573.125,871.6
573.259,866.2
573.393,867.45
573.527,875.65
573.661,889.4
573.795,886.45
573.93,872.25
574.064,868.45
574.198,864.85
574.332,863.75
574.466,860.2
574.6,853.75
574.734,852.65
574.868,853.8
575.002,851.6
575.136,852.35
575.271,850.55
575.405,852.4
575.539,852.65
575.673,851.6
575.807,853.35
575.941,857.5
576.075,873.15
576.209,892.4
576.343,891.0
576.477,887.25
576.611,893.6
576.745,912.9
576.879,942.7
577.013,960.8
577.147,947.55
577.281,906.8
577.415,877.15
577.549,863.3
577.683,856.65
577.817,855.6
577.951,854.15
578.085,853.35
578.218,852.0
578.352,852.7
578.486,850.45
578.62,850.2
578.754,851.1
578.888,850.55
579.022,848.55
579.156,851.35
579.29,850.35
579.424,849.45
579.557,848.95
579.691,849.4
579.825,849.5
579.959,849.35
580.093,850.0
580.227,850.3
580.361,848.95
580.494,848.75
580.628,850.15
580.762,849.25
580.896,847.55
581.03,847.05
581.164,848.2
581.297,848.65
581.431,847.6
581.565,850.35
581.699,848.5
581.832,849.05
581.966,849.3
582.1,849.35
582.234,849.7
582.368,850.6
582.501,850.1
582.635,849.45
582.769,849.45
582.903,849.65
583.036,849.4
583.17,848.7
583.304,849.85
583.437,850.15
583.571,851.55
583.705,848.55
583.838,851.1
583.972,849.3
584.106,848.95
584.24,849.85
584.373,849.55
584.507,848.9
584.641,849.65
584.774,849.55
584.908,850.2
585.041,848.85
585.175,849.15
585.309,850.3
585.442,849.8
585.576,849.8
585.71,849.8
585.843,849.15
585.977,849.55
586.11,848.25
586.244,847.25
586.378,848.6
586.511,848.6
586.645,847.0
586.778,849.3
586.912,848.15
587.045,847.9
587.179,849.15
587.313,848.15
587.446,849.9
587.58,848.3
587.713,849.3
587.847,848.1
587.98,848.7
588.114,848.05
588.247,848.4
588.381,848.8
588.514,848.8
588.648,848.0
588.781,847.4
588.915,849.85
589.048,849.1
589.182,848.95
589.315,848.15
589.449,846.85
589.582,847.9
589.715,848.55
589.849,848.55
589.982,846.9
590.116,848.15
590.249,849.25
590.383,847.45
590.516,848.0
590.649,847.3
590.783,847.7
590.916,847.35
591.05,849.3
591.183,848.95
591.316,848.85
591.45,848.3
591.583,849.05
591.717,847.4
591.85,847.8
591.983,848.3
592.117,850.1
592.25,847.8
592.383,847.35
592.517,849.9
592.65,847.55
592.783,847.25
592.917,846.8
593.05,846.45
593.183,847.3
593.317,849.6
593.45,848.3
593.583,847.3
593.717,849.0
593.85,847.65
593.983,846.65
594.116,847.95
594.25,847.7
594.383,847.25
594.516,848.15
594.649,846.2
594.783,849.05
594.916,847.15
595.049,846.2
595.182,846.95
595.316,846.85
595.449,847.85
595.582,847.35
595.715,847.95
595.849,846.95
595.982,848.25
596.115,848.55
596.248,848.35
596.381,848.45
596.514,847.65
596.648,848.55
596.781,848.1
596.914,846.95
597.047,847.75
597.18,846.95
597.313,847.55
597.447,847.3
597.58,848.15
597.713,846.95
597.846,846.75
597.979,846.55
598.112,847.9
598.245,847.55
598.379,847.75
598.512,848.2
598.645,848.5
598.778,847.45
598.911,848.85
599.044,847.8
599.177,848.1
599.31,848.55
599.443,847.35
599.576,849.3
599.709,848.1
599.842,848.55
599.975,847.85
600.109,847.4
600.242,848.75
600.375,847.55
600.508,848.75
600.641,849.0
600.774,847.2
600.907,846.4
601.04,847.4
601.173,849.2
601.306,847.6
601.439,848.1
601.572,847.5
601.705,847.25
601.838,848.75
601.971,848.3
602.104,848.55
602.237,848.15
602.37,848.1
602.503,846.55
602.636,848.8
602.768,846.65
602.901,848.35
603.034,848.4
603.167,849.6
603.3,846.25
603.433,847.6
603.566,850.15
603.699,848.1
603.832,850.0
603.965,848.85
604.098,847.05
604.231,848.35
604.364,849.15
604.496,847.75
604.629,847.85
604.762,849.2
604.895,848.95
605.028,848.9
605.161,848.2
605.294,847.6
605.427,848.5
605.559,849.05
605.692,848.15
605.825,848.6
605.958,847.75
606.091,847.4
606.224,848.1
606.356,848.3
606.489,849.2
606.622,849.4
606.755,850.0
606.888,848.95
607.02,849.5
607.153,848.5
607.286,849.65
607.419,847.55
607.552,849.75
607.684,848.5
607.817,850.05
607.95,849.55
608.083,847.7
608.215,848.65
608.348,850.6
608.481,847.95
608.614,848.8
608.746,848.15
608.879,848.0
609.012,848.1
609.145,846.95
609.277,848.15
609.41,849.45
609.543,848.5
609.675,849.7
609.808,848.75
609.941,848.8
610.074,848.5
610.206,849.2
610.339,849.15
610.472,849.05
610.604,848.4
610.737,849.25
610.87,849.4
611.002,848.4
611.135,848.15
611.268,847.45
611.4,848.8
611.533,847.2
611.666,849.75
611.798,847.7
611.931,849.05
612.063,848.8
612.196,849.55
612.329,850.4
612.461,848.35
612.594,849.85
612.727,850.5
612.859,848.85
612.992,849.25
613.124,850.8
613.257,848.0
613.39,848.45
613.522,849.1
613.655,849.5
613.787,848.85
613.92,848.75
614.052,847.95
614.185,848.35
614.317,849.35
614.45,848.5
614.583,848.15
614.715,849.85
614.848,850.2
614.98,850.6
615.113,850.3
615.245,849.05
615.378,849.55
615.51,849.6
615.643,850.5
615.775,848.85
615.908,850.75
616.04,848.45
616.173,849.5
616.305,849.3
616.438,849.75
616.57,850.25
616.703,849.9
616.835,851.7
616.968,851.2
617.1,852.45
617.233,852.15
617.365,850.8
617.498,851.25
617.63,851.15
617.762,854.4
617.895,853.0
618.027,852.75
618.16,851.65
618.292,851.1
618.425,853.45
618.557,853.4
618.689,852.15
618.822,851.35
618.954,852.0
619.087,852.0
619.219,856.1
619.351,856.6
619.484,857.35
619.616,856.65
619.749,857.0
619.881,859.15
620.013,856.85
620.146,858.15
620.278,857.25
620.41,858.1
620.543,858.3
620.675,856.2
620.808,857.75
620.94,858.15
621.072,858.7
621.205,856.5
621.337,859.05
621.469,860.0
621.602,864.45
621.734,866.35
621.866,872.4
621.998,875.5
622.131,881.35
622.263,890.65
622.395,895.45
622.528,891.8
622.66,881.2
622.792,875.85
622.925,869.75
623.057,868.6
623.189,865.05
623.321,863.95
623.454,862.0
623.586,860.5
623.718,859.05
623.85,858.0
623.983,857.7
624.115,857.8
624.247,853.5
624.379,855.65
624.512,856.85
624.644,854.85
624.776,854.7
624.908,857.75
625.041,857.55
625.173,858.05
625.305,858.55
625.437,859.0
625.569,862.1
625.702,862.3
625.834,865.4
625.966,867.9
626.098,870.35
626.23,874.05
626.363,883.15
626.495,905.9
626.627,940.75
626.759,1001.35
626.891,1075.1
627.024,1086.85
627.156,1043.1
627.288,988.85
627.42,955.8
627.552,948.0
627.684,977.1
627.816,1051.85
627.949,1156.7
628.081,1219.85
628.213,1222.7
628.345,1240.25
628.477,1293.4
628.609,1360.8
628.741,1372.4
628.874,1322.95
629.006,1267.4
629.138,1217.65
629.27,1201.15
629.402,1215.15
629.534,1232.5
629.666,1211.2
629.798,1163.1
629.93,1131.05
630.062,1127.4
630.195,1134.75
630.327,1139.4
630.459,1116.35
630.591,1069.5
630.723,1021.85
630.855,990.1
630.987,988.8
631.119,1019.25
631.251,1079.3
631.383,1146.25
631.515,1174.7
631.647,1208.8
631.779,1232.55
631.911,1201.25
632.043,1143.1
632.175,1067.85
632.307,997.5
632.439,949.25
632.571,917.3
632.703,900.25
632.835,884.6
632.967,879.0
633.099,872.85
633.231,867.4
633.363,867.55
633.495,864.2
633.627,861.0
633.759,858.65
633.891,856.6
634.023,856.15
634.155,856.9
634.287,854.65
634.419,854.65
634.551,852.75
634.683,852.2
634.815,850.7
634.947,851.65
635.079,852.3
635.211,850.45
635.343,850.8
635.475,850.75
635.607,851.4
635.739,851.0
635.871,850.05
636.003,850.0
636.135,850.0
636.267,851.45
636.398,850.15
636.53,849.2
636.662,847.85
636.794,848.95
636.926,847.9
637.058,848.95
637.19,849.7
637.322,849.55
637.454,847.25
637.586,848.75
637.717,849.6
637.849,847.3
637.981,849.45
638.113,848.95
638.245,848.15
638.377,848.9
638.509,850.05
638.641,850.8
638.773,849.7
638.904,849.0
639.036,849.95
639.168,849.0
639.3,847.8
639.432,849.05
639.564,850.4
639.695,850.9
639.827,849.05
639.959,848.2
640.091,848.75
640.223,850.25
640.355,848.8
640.486,848.25
640.618,848.35
640.75,851.1
640.882,848.8
641.014,848.9
641.146,849.7
641.277,849.3
641.409,849.75
641.541,848.75
641.673,849.95
641.805,849.6
641.936,849.6
642.068,849.35
642.2,847.05
642.332,849.05
642.464,846.9
642.595,846.85
642.727,845.7
642.859,846.6
642.991,846.35
643.122,845.05
643.254,847.05
643.386,844.1
643.518,845.6
643.649,845.6
643.781,844.25
643.913,844.65
644.045,844.95
644.176,845.4
644.308,844.3
644.44,846.15
644.572,845.4
644.703,845.15
644.835,846.05
644.967,844.4
645.099,844.8
645.23,844.7
645.362,843.6
645.494,843.55
645.625,844.2
645.757,844.55
645.889,843.55
646.021,842.85
646.152,844.45
646.284,844.45
646.416,846.45
646.547,845.45
646.679,843.25
646.811,845.0
646.942,844.05
647.074,844.5
647.206,844.55
647.337,844.3
647.469,843.95
647.601,845.65
647.732,843.55
647.864,844.9
647.996,843.9
648.127,844.4
648.259,843.3
648.391,842.25
648.522,844.95
648.654,845.05
648.786,844.25
648.917,844.1
649.049,844.45
649.181,843.85
649.312,842.6
649.444,843.0
649.576,844.5
649.707,843.9
649.839,843.3
649.971,842.95
650.102,844.25
650.234,843.45
650.365,842.7
650.497,842.95
650.629,844.25
650.76,844.55
650.892,843.9
651.023,843.3
651.155,843.25
651.287,843.75
651.418,845.15
651.55,843.95
651.682,842.1
651.813,843.25
651.945,843.0
652.076,843.1
652.208,843.7
652.339,843.15
652.471,842.85
652.603,843.5
652.734,842.4
652.866,843.05
652.997,842.1
653.129,842.1
653.261,842.65
653.392,841.65
653.524,842.3
653.655,843.1
653.787,842.9
653.918,842.7
654.05,841.7
654.181,843.25
654.313,842.25
654.445,842.0
654.576,842.35
654.708,842.55
654.839,842.95
654.971,841.45
655.102,842.85
655.234,841.3
655.365,843.25
655.497,842.4
655.628,842.35
655.76,841.65
655.892,842.85
656.023,842.55
656.155,842.9
656.286,842.05
656.418,841.75
656.549,840.6
656.681,843.55
656.812,842.65
656.944,841.1
657.075,842.65
657.207,841.85
657.338,842.1
657.47,841.4
657.601,842.0
657.733,842.0
657.864,842.85
657.996,842.0
658.127,842.45
658.259,841.35
658.39,841.25
658.522,842.55
658.653,841.7
658.785,842.25
658.916,842.75
659.048,840.45
659.179,841.0
659.311,841.0
659.442,842.3
659.574,842.5
659.705,842.45
659.836,841.25
659.968,841.8
660.099,840.55
660.231,842.05
660.362,842.55
660.494,842.9
660.625,840.1
660.757,842.7
660.888,842.95
661.02,841.7
661.151,840.4
661.283,840.9
661.414,841.35
661.545,841.6
661.677,843.0
661.808,840.7
661.94,841.05
662.071,841.55
662.203,841.85
662.334,841.0
662.466,842.3
662.597,841.5
662.728,841.7
662.86,841.35
662.991,840.4
663.123,841.95
