nm,Intensity
526.549,831.98
526.686,831.96
526.823,832.58
526.959,831.88
527.096,831.48
527.233,832.08
527.37,831.94
527.506,831.48
527.643,831.68
527.78,832.24
527.917,831.46
528.053,831.82
528.19,831.5
528.327,832.16
528.463,832.0
528.6,831.66
528.737,831.94
528.873,831.86
529.01,831.6
529.147,831.78
529.283,831.46
529.42,831.94
529.556,831.88
529.693,831.36
529.83,832.42
529.966,830.8
530.103,832.62
530.239,831.16
530.376,831.86
530.512,831.94
530.649,831.46
530.785,831.5
530.922,831.76
531.058,831.46
531.195,831.42
531.331,831.94
531.468,832.02
531.604,831.94
531.741,831.24
531.877,831.96
532.014,834.92
532.15,846.88
532.287,845.4
532.423,834.48
532.559,831.64
532.696,832.02
532.832,831.72
532.968,831.94
533.105,831.22
533.241,830.98
533.378,832.0
533.514,832.06
533.65,831.82
533.787,835.9
533.923,850.4
534.059,867.14
534.196,871.68
534.332,871.22
534.468,869.38
534.604,868.48
534.741,868.26
534.877,866.22
535.013,864.78
535.149,863.92
535.286,861.98
535.422,861.8
535.558,861.26
535.694,859.84
535.83,859.88
535.967,860.22
536.103,858.24
536.239,859.86
536.375,859.92
536.511,859.72
536.647,859.12
536.784,859.0
536.92,859.3
537.056,858.58
537.192,859.36
537.328,858.86
537.464,859.3
537.6,860.1
537.736,860.46
537.872,860.44
538.008,860.42
538.145,860.02
538.281,859.76
538.417,862.1
538.553,861.42
538.689,862.1
538.825,863.12
538.961,864.86
539.097,862.32
539.233,860.48
539.369,861.08
539.505,862.9
539.641,859.88
539.777,860.28
539.912,859.48
540.048,858.94
540.184,858.84
540.32,858.86
540.456,859.44
540.592,858.2
540.728,858.94
540.864,858.42
541.0,856.74
541.136,858.7
541.271,857.68
541.407,858.66
541.543,858.6
541.679,857.34
541.815,859.32
541.951,857.9
542.087,858.86
542.222,859.58
542.358,857.44
542.494,859.32
542.63,858.82
542.765,859.36
542.901,858.6
543.037,859.24
543.173,860.3
543.308,860.04
543.444,858.02
543.58,859.78
543.716,859.4
543.851,861.38
543.987,861.22
544.123,862.0
544.258,862.74
544.394,864.62
544.53,865.52
544.665,866.92
544.801,868.44
544.937,869.62
545.072,870.72
545.208,871.7
545.344,869.56
545.479,868.38
545.615,864.8
545.75,863.9
545.886,863.66
546.022,860.9
546.157,861.08
546.293,860.36
546.428,860.92
546.564,859.92
546.699,860.68
546.835,859.96
546.971,860.16
547.106,860.42
547.242,858.98
547.377,858.8
547.513,859.74
547.648,859.1
547.784,859.56
547.919,860.38
548.054,860.0
548.19,859.84
548.325,859.88
548.461,860.22
548.596,860.0
548.732,861.74
548.867,862.16
549.003,863.8
549.138,864.44
549.273,865.78
549.409,867.34
549.544,869.84
549.679,870.88
549.815,870.2
549.95,870.66
550.086,870.42
550.221,870.9
550.356,868.2
550.492,867.2
550.627,865.6
550.762,862.82
550.898,864.78
551.033,863.1
551.168,863.56
551.303,862.26
551.439,862.02
551.574,860.34
551.709,860.66
551.844,860.82
551.98,862.46
552.115,866.48
552.25,872.52
552.385,873.2
552.521,869.98
552.656,866.82
552.791,863.78
552.926,863.16
553.061,862.62
553.197,861.54
553.332,861.7
553.467,861.08
553.602,860.68
553.737,860.76
553.872,860.9
554.007,861.04
554.143,861.44
554.278,862.78
554.413,860.7
554.548,860.94
554.683,860.68
554.818,859.64
554.953,860.1
555.088,860.52
555.223,861.8
555.358,859.14
555.493,860.62
555.629,860.3
555.764,858.86
555.899,860.6
556.034,860.9
556.169,860.78
556.304,861.62
556.439,862.06
556.574,861.38
556.709,861.14
556.844,861.7
556.979,863.7
557.114,862.46
557.248,862.86
557.383,862.36
557.518,862.54
557.653,861.98
557.788,861.98
557.923,861.08
558.058,862.68
558.193,861.68
558.328,861.5
558.463,861.28
558.598,862.02
558.733,861.28
558.867,860.26
559.002,860.76
559.137,860.82
559.272,861.0
559.407,861.4
559.542,860.88
559.677,860.52
559.811,860.86
559.946,861.32
560.081,860.14
560.216,859.96
560.351,862.94
560.485,862.62
560.62,863.14
560.755,863.04
560.89,860.92
561.024,862.16
561.159,862.16
561.294,862.02
561.429,863.18
561.563,861.52
561.698,860.74
561.833,861.36
561.968,861.08
562.102,862.36
562.237,861.46
562.372,861.58
562.506,862.06
562.641,862.88
562.776,862.88
562.91,863.08
563.045,863.1
563.18,865.08
563.314,866.68
563.449,865.4
563.584,864.8
563.718,865.74
563.853,870.46
563.987,881.16
564.122,886.62
564.257,877.42
564.391,870.36
564.526,868.64
564.66,870.56
564.795,870.52
564.93,869.88
565.064,866.68
565.199,865.24
565.333,865.84
565.468,866.5
565.602,865.28
565.737,866.32
565.871,867.52
566.006,869.12
566.14,874.22
566.275,872.86
566.409,871.04
566.544,870.48
566.678,872.76
566.813,867.12
566.947,866.38
567.082,865.94
567.216,864.84
567.351,866.14
567.485,867.6
567.619,866.84
567.754,866.2
567.888,866.0
568.023,867.04
568.157,867.96
568.291,867.14
568.426,868.32
568.56,868.22
568.695,868.0
568.829,869.26
568.963,868.7
569.098,867.46
569.232,866.92
569.366,866.7
569.501,865.48
569.635,866.08
569.769,866.94
569.904,866.22
570.038,867.02
570.172,867.96
570.307,866.44
570.441,867.72
570.575,868.46
570.709,870.0
570.844,870.78
570.978,872.14
571.112,878.34
571.247,882.12
571.381,885.46
571.515,903.16
571.649,912.1
571.783,894.72
571.918,885.38
572.052,882.44
572.186,877.24
572.32,875.3
572.455,875.62
572.589,874.0
572.723,874.3
572.857,879.38
572.991,883.12
573.125,886.34
573.26,880.94
573.394,874.78
573.528,871.76
573.662,872.5
573.796,871.86
573.93,872.54
574.064,872.42
574.199,870.9
574.333,870.52
574.467,871.22
574.601,876.16
574.735,878.4
574.869,872.76
575.003,870.1
575.137,870.14
575.271,869.92
575.405,870.36
575.539,872.32
575.673,874.58
575.807,877.0
575.941,879.56
576.075,887.84
576.209,896.54
576.344,902.76
576.478,899.32
576.612,899.06
576.746,901.36
576.88,898.04
577.014,894.06
577.147,889.24
577.281,886.02
577.415,881.48
577.549,880.0
577.683,879.48
577.817,879.32
577.951,878.16
578.085,875.0
578.219,874.86
578.353,879.28
578.487,888.88
578.621,892.48
578.755,884.96
578.889,878.16
579.023,878.8
579.156,890.56
579.29,904.16
579.424,905.36
579.558,903.22
579.692,899.3
579.826,890.8
579.96,882.28
580.094,878.12
580.227,876.34
580.361,876.6
580.495,876.24
580.629,874.14
580.763,874.1
580.897,871.94
581.03,871.66
581.164,871.38
581.298,871.34
581.432,870.94
581.565,871.48
581.699,871.62
581.833,871.38
581.967,871.32
582.101,871.06
582.234,870.72
582.368,870.6
582.502,869.96
582.636,869.78
582.769,871.06
582.903,869.44
583.037,868.7
583.17,867.3
583.304,868.9
583.438,868.34
583.572,867.34
583.705,868.38
583.839,868.68
583.973,867.68
584.106,867.18
584.24,867.98
584.374,867.84
584.507,868.34
584.641,866.58
584.775,866.5
584.908,867.22
585.042,867.24
585.175,866.26
585.309,866.84
585.443,866.84
585.576,866.54
585.71,867.36
585.844,867.74
585.977,868.72
586.111,867.42
586.244,868.12
586.378,869.14
586.511,867.7
586.645,869.02
586.779,867.98
586.912,867.82
587.046,867.5
587.179,867.16
587.313,868.36
587.446,868.58
587.58,868.24
587.713,866.82
587.847,867.62
587.98,869.12
588.114,868.3
588.247,867.44
588.381,867.94
588.514,867.44
588.648,867.06
588.781,867.68
588.915,867.0
589.048,866.74
589.182,866.92
589.315,867.68
589.449,867.26
589.582,867.58
589.716,867.38
589.849,867.68
589.982,867.28
590.116,866.92
590.249,867.4
590.383,867.2
590.516,867.5
590.65,867.78
590.783,867.66
590.916,868.68
591.05,868.42
591.183,867.44
591.316,867.08
591.45,867.4
591.583,868.34
591.717,867.04
591.85,867.14
591.983,868.1
592.117,867.82
592.25,868.28
592.383,867.74
592.517,868.84
592.65,868.08
592.783,867.82
592.917,867.58
593.05,868.72
593.183,868.52
593.316,868.06
593.45,868.42
593.583,867.96
593.716,868.0
593.85,867.78
593.983,868.28
594.116,868.0
594.249,868.58
594.383,868.9
594.516,868.22
594.649,869.4
594.782,868.98
594.916,869.12
595.049,868.8
595.182,867.6
595.315,868.98
595.449,868.46
595.582,870.58
595.715,868.66
595.848,869.28
595.981,868.3
596.115,869.9
596.248,869.06
596.381,869.54
596.514,870.12
596.647,870.5
596.78,868.1
596.914,869.0
597.047,868.4
597.18,871.2
597.313,869.3
597.446,869.68
597.579,869.3
597.712,870.54
597.846,868.74
597.979,868.64
598.112,870.38
598.245,869.52
598.378,870.04
598.511,870.3
598.644,870.18
598.777,869.52
598.91,869.7
599.043,869.08
599.177,870.44
599.31,870.74
599.443,869.46
599.576,870.86
599.709,870.6
599.842,871.28
599.975,870.24
600.108,870.46
600.241,869.7
600.374,870.6
600.507,869.84
600.64,870.06
600.773,870.1
600.906,870.86
601.039,869.58
601.172,870.28
601.305,869.78
601.438,870.36
601.571,870.58
601.704,869.98
601.837,870.3
601.97,871.1
602.103,870.76
602.236,871.42
602.369,870.98
602.502,870.7
602.635,870.66
602.768,870.26
602.901,870.24
603.034,871.02
603.166,871.44
603.299,870.68
603.432,871.22
603.565,871.84
603.698,871.74
603.831,870.22
603.964,871.42
604.097,870.16
604.23,871.14
604.363,872.38
604.496,872.54
604.628,870.88
604.761,871.04
604.894,869.62
605.027,870.62
605.16,869.48
605.293,869.88
605.426,870.16
605.558,870.08
605.691,870.0
605.824,870.0
605.957,871.32
606.09,869.4
606.223,869.84
606.355,869.96
606.488,870.12
606.621,869.36
606.754,868.36
606.887,869.24
607.019,869.5
607.152,869.6
607.285,869.96
607.418,868.68
607.551,870.32
607.683,870.26
607.816,870.3
607.949,869.04
608.082,870.34
608.214,869.22
608.347,871.16
608.48,869.6
608.613,869.28
608.745,869.82
608.878,870.2
609.011,870.34
609.143,870.12
609.276,868.88
609.409,870.4
609.542,869.02
609.674,868.88
609.807,868.46
609.94,868.86
610.072,868.32
610.205,869.06
610.338,868.4
610.47,868.94
610.603,869.02
610.736,868.16
610.868,868.1
611.001,869.24
611.134,869.28
611.266,868.66
611.399,869.04
611.532,868.42
611.664,868.68
611.797,869.0
611.93,868.92
612.062,868.96
612.195,868.58
612.327,869.76
612.46,869.24
612.593,869.9
612.725,868.92
612.858,869.12
612.99,870.58
613.123,869.32
613.256,869.08
613.388,870.82
613.521,870.26
613.653,870.0
613.786,868.72
613.919,869.36
614.051,869.56
614.184,870.84
614.316,871.3
614.449,869.84
614.581,870.5
614.714,870.82
614.846,869.08
614.979,870.74
615.111,869.96
615.244,870.24
615.376,870.48
615.509,870.36
615.641,871.7
615.774,870.68
615.906,870.36
616.039,871.88
616.171,871.96
616.304,870.32
616.436,870.58
616.569,871.32
616.701,871.62
616.834,871.62
616.966,872.86
617.099,874.42
617.231,874.12
617.364,872.9
617.496,873.92
617.629,872.08
617.761,873.88
617.894,872.78
618.026,872.94
618.158,873.76
618.291,873.22
618.423,873.28
618.556,873.28
618.688,873.56
618.82,873.08
618.953,873.44
619.085,874.4
619.218,874.16
619.35,872.38
619.482,873.8
619.615,873.6
619.747,873.7
619.88,874.56
620.012,874.02
620.144,872.58
620.277,874.16
620.409,873.56
620.541,873.38
620.674,874.0
620.806,872.84
620.939,875.72
621.071,875.26
621.203,875.14
621.336,876.36
621.468,875.5
621.6,876.78
621.733,877.72
621.865,878.3
621.997,880.96
622.13,881.76
622.262,882.56
622.394,883.02
622.526,881.34
622.659,879.38
622.791,878.8
622.923,876.92
623.056,875.06
623.188,874.84
623.32,874.84
623.452,874.36
623.585,873.16
623.717,873.14
623.849,874.12
623.981,874.14
624.114,872.66
624.246,872.18
624.378,873.34
624.511,873.18
624.643,874.82
624.775,874.52
624.907,874.64
625.039,872.74
625.172,874.42
625.304,873.98
625.436,873.6
625.568,875.68
625.701,875.2
625.833,875.62
625.965,878.12
626.097,877.88
626.229,881.54
626.362,882.32
626.494,886.22
626.626,892.78
626.758,907.54
626.89,929.58
627.022,962.36
627.155,996.2
627.287,1009.04
627.419,998.78
627.551,981.42
627.683,968.36
627.815,958.58
627.948,951.6
628.08,949.6
628.212,952.96
628.344,968.0
628.476,998.74
628.608,1023.7
628.74,1003.28
628.873,974.5
629.005,960.78
629.137,955.28
629.269,951.66
629.401,945.0
629.533,938.88
629.665,931.74
629.797,926.42
629.929,921.64
630.061,919.4
630.194,919.54
630.326,919.26
630.458,917.12
630.59,914.42
630.722,911.08
630.854,905.6
630.986,898.78
631.118,892.16
631.25,885.56
631.382,883.22
631.514,880.72
631.646,879.94
631.778,877.98
631.91,877.88
632.042,876.14
632.175,875.46
632.307,874.26
632.439,874.66
632.571,873.5
632.703,874.02
632.835,873.08
632.967,872.48
633.099,872.64
633.231,870.92
633.363,871.18
633.495,871.0
633.627,871.36
633.759,868.9
633.891,870.02
634.023,870.28
634.155,869.68
634.287,868.86
634.419,868.84
634.551,868.82
634.683,870.14
634.815,868.94
634.947,869.94
635.079,870.18
635.21,870.52
635.342,870.44
635.474,870.72
635.606,869.54
635.738,868.5
635.87,869.54
636.002,870.64
636.134,869.82
636.266,870.94
636.398,870.14
636.53,870.84
636.662,869.72
636.794,869.14
636.926,868.2
637.058,868.48
637.19,868.18
637.321,869.3
637.453,867.86
637.585,867.52
637.717,867.7
637.849,867.3
637.981,867.78
638.113,866.86
638.245,867.12
638.377,866.1
638.509,866.26
638.64,866.08
638.772,866.1
638.904,867.22
639.036,866.52
639.168,865.48
639.3,866.88
639.432,866.06
639.563,867.02
639.695,867.02
639.827,866.5
639.959,867.04
640.091,865.52
640.223,866.06
640.355,868.06
640.486,867.42
640.618,866.5
640.75,866.96
640.882,866.74
641.014,866.46
641.146,866.94
641.277,866.94
641.409,865.54
641.541,867.06
641.673,866.64
641.805,865.16
641.936,866.32
642.068,865.46
642.2,867.28
642.332,866.16
642.464,865.58
642.595,867.06
642.727,865.72
642.859,866.04
642.991,865.32
643.123,865.18
643.254,865.86
643.386,865.74
643.518,865.34
643.65,863.6
643.781,866.26
643.913,866.3
644.045,863.56
644.177,864.1
644.309,864.68
644.44,864.26
644.572,864.34
644.704,865.5
644.836,864.06
644.967,864.22
645.099,863.82
645.231,863.4
645.362,863.84
645.494,864.48
645.626,863.9
645.758,863.78
645.889,863.78
646.021,864.0
646.153,863.58
646.285,863.74
646.416,864.04
646.548,863.6
646.68,864.24
646.811,863.6
646.943,863.38
647.075,863.96
647.206,864.26
647.338,863.54
647.47,864.34
647.602,863.24
647.733,863.3
647.865,863.18
647.997,864.08
648.128,863.28
648.26,864.24
648.392,864.64
648.523,864.32
648.655,864.24
648.787,865.64
648.918,863.16
649.05,864.28
649.182,864.38
649.313,864.7
649.445,863.56
649.577,863.64
649.708,863.42
649.84,863.94
649.972,863.66
650.103,862.44
650.235,863.24
650.366,864.22
650.498,863.78
650.63,863.34
650.761,863.34
650.893,863.92
651.025,862.52
651.156,864.7
651.288,863.18
651.419,862.74
651.551,863.96
651.683,864.06
651.814,863.96
651.946,863.0
652.077,863.08
652.209,863.5
652.341,862.88
652.472,863.26
652.604,863.78
652.735,865.26
652.867,863.7
652.999,863.44
653.13,864.26
653.262,863.62
653.393,862.92
653.525,863.64
653.657,863.56
653.788,864.72
653.92,864.86
654.051,863.92
654.183,863.6
654.314,863.7
654.446,864.16
654.578,864.16
654.709,864.06
654.841,863.68
654.972,862.84
655.104,864.26
655.235,863.56
655.367,862.78
655.498,862.66
655.63,864.16
655.762,863.22
655.893,863.66
656.025,862.92
656.156,863.4
656.288,863.14
656.419,863.2
656.551,863.92
656.682,863.14
656.814,863.9
656.945,863.82
657.077,863.54
657.208,863.12
657.34,863.22
657.471,864.62
657.603,863.54
657.734,863.96
657.866,864.04
657.997,862.76
658.129,863.72
658.26,864.16
658.392,864.44
658.523,864.3
658.655,863.16
658.786,863.72
658.918,863.22
659.049,864.0
659.181,863.86
659.312,864.7
659.444,864.58
659.575,863.26
659.707,863.56
659.838,863.7
659.97,864.5
660.101,863.16
660.233,863.72
660.364,862.92
660.496,863.24
660.627,864.16
660.759,862.88
660.89,862.64
661.022,862.9
661.153,863.42
661.285,862.52
661.416,864.1
661.547,863.18
661.679,862.36
661.81,863.2
661.942,862.46
662.073,862.28
662.205,862.12
662.336,862.74
662.468,862.98
662.599,863.68
662.731,862.28
662.862,863.24
662.993,861.94
663.125,862.16
