nm,Intensity
526.549,831.66
526.686,831.64
526.823,831.92
526.959,831.62
527.096,831.92
527.233,831.76
527.37,831.66
527.506,831.2
527.643,832.28
527.78,830.78
527.917,831.7
528.053,831.64
528.19,831.62
528.327,831.74
528.463,831.24
528.6,831.4
528.737,831.62
528.873,831.9
529.01,831.44
529.147,832.06
529.283,831.7
529.42,832.66
529.556,831.32
529.693,831.96
529.83,831.6
529.966,831.46
530.103,830.9
530.239,831.74
530.376,832.18
530.512,831.76
530.649,830.36
530.785,831.08
530.922,831.9
531.058,831.52
531.195,831.38
531.331,832.16
531.468,831.8
531.604,831.22
531.741,831.7
531.877,831.44
532.014,841.2
532.15,883.38
532.287,873.52
532.423,837.7
532.559,832.2
532.696,831.7
532.832,830.88
532.968,831.7
533.105,831.26
533.241,831.4
533.378,832.36
533.514,831.08
533.65,832.62
533.787,837.34
533.923,857.22
534.059,880.7
534.196,887.04
534.332,887.02
534.468,884.1
534.604,884.68
534.741,888.48
534.877,890.14
535.013,889.44
535.149,891.52
535.286,894.28
535.422,891.12
535.558,884.58
535.694,880.8
535.83,877.46
535.967,877.5
536.103,876.04
536.239,876.18
536.375,874.68
536.511,876.5
536.647,875.94
536.784,878.4
536.92,883.54
537.056,887.92
537.192,888.66
537.328,885.26
537.464,881.66
537.6,880.06
537.736,877.56
537.872,876.48
538.008,875.2
538.145,877.2
538.281,878.02
538.417,878.38
538.553,875.8
538.689,876.92
538.825,877.46
538.961,877.88
539.097,879.54
539.233,882.06
539.369,883.02
539.505,884.42
539.641,881.92
539.777,880.98
539.912,878.92
540.048,876.56
540.184,876.22
540.32,877.8
540.456,875.86
540.592,877.18
540.728,876.76
540.864,877.14
541.0,877.5
541.136,878.02
541.271,880.24
541.407,881.62
541.543,879.96
541.679,879.76
541.815,877.82
541.951,879.68
542.087,879.14
542.222,878.86
542.358,877.76
542.494,879.44
542.63,876.6
542.765,879.44
542.901,879.1
543.037,880.78
543.173,880.9
543.308,882.48
543.444,887.0
543.58,898.08
543.716,917.18
543.851,908.98
543.987,892.78
544.123,885.6
544.258,884.22
544.394,883.92
544.53,882.02
544.665,881.4
544.801,883.34
544.937,883.84
545.072,885.94
545.208,889.18
545.344,895.62
545.479,895.8
545.615,891.6
545.75,886.52
545.886,884.32
546.022,883.76
546.157,884.0
546.293,882.64
546.428,883.8
546.564,882.86
546.699,883.6
546.835,884.1
546.971,883.5
547.106,885.26
547.242,887.3
547.377,888.24
547.513,892.2
547.648,893.54
547.784,889.64
547.919,888.06
548.054,885.58
548.19,883.96
548.325,884.62
548.461,884.02
548.596,883.2
548.732,884.4
548.867,883.32
549.003,884.3
549.138,885.28
549.273,884.68
549.409,884.42
549.544,885.96
549.679,884.94
549.815,885.06
549.95,885.84
550.086,883.12
550.221,884.9
550.356,885.56
550.492,883.98
550.627,885.92
550.762,885.38
550.898,884.98
551.033,885.66
551.168,887.84
551.303,886.94
551.439,888.04
551.574,886.24
551.709,887.8
551.844,887.1
551.98,887.8
552.115,887.82
552.25,887.78
552.385,887.32
552.521,886.6
552.656,888.74
552.791,887.04
552.926,886.32
553.061,887.04
553.197,889.16
553.332,888.06
553.467,887.88
553.602,888.48
553.737,889.44
553.872,889.4
554.007,890.96
554.143,890.18
554.278,891.16
554.413,890.28
554.548,890.2
554.683,890.3
554.818,891.66
554.953,891.62
555.088,891.92
555.223,892.6
555.358,892.58
555.493,893.28
555.629,893.9
555.764,897.4
555.899,911.2
556.034,949.94
556.169,981.64
556.304,938.1
556.439,908.26
556.574,901.96
556.709,902.58
556.844,904.34
556.979,913.38
557.114,927.9
557.248,922.28
557.383,905.42
557.518,898.54
557.653,898.66
557.788,898.04
557.923,895.74
558.058,894.84
558.193,895.68
558.328,895.04
558.463,894.0
558.598,895.22
558.733,894.26
558.867,896.44
559.002,899.02
559.137,896.38
559.272,895.42
559.407,895.08
559.542,894.64
559.677,895.46
559.811,896.3
559.946,896.92
560.081,901.14
560.216,906.52
560.351,904.48
560.485,899.88
560.62,898.06
560.755,897.6
560.89,901.48
561.024,907.48
561.159,928.22
561.294,943.08
561.429,921.6
561.563,904.68
561.698,900.9
561.833,901.04
561.968,905.66
562.102,910.02
562.237,905.58
562.372,900.28
562.506,900.54
562.641,900.7
562.776,899.76
562.91,901.28
563.045,903.04
563.18,907.7
563.314,910.9
563.449,912.96
563.584,908.66
563.718,904.02
563.853,901.22
563.987,902.6
564.122,901.2
564.257,901.68
564.391,900.56
564.526,901.0
564.66,900.7
564.795,901.44
564.93,900.88
565.064,903.84
565.199,903.02
565.333,904.74
565.468,906.12
565.602,903.98
565.737,902.94
565.871,902.42
566.006,902.7
566.14,903.48
566.275,904.62
566.409,904.9
566.544,906.82
566.678,909.68
566.813,920.56
566.947,930.94
567.082,931.8
567.216,931.3
567.351,941.96
567.485,956.74
567.619,941.0
567.754,918.48
567.888,908.86
568.023,906.26
568.157,905.52
568.291,906.52
568.426,905.24
568.56,905.88
568.695,908.8
568.829,908.48
568.963,914.58
569.098,922.46
569.232,920.34
569.366,911.92
569.501,908.88
569.635,907.16
569.769,907.58
569.904,907.46
570.038,908.8
570.172,912.48
570.307,917.12
570.441,911.94
570.575,908.74
570.709,907.58
570.844,906.62
570.978,907.64
571.112,908.0
571.247,907.54
571.381,910.14
571.515,913.16
571.649,914.88
571.783,913.92
571.918,916.34
572.052,915.94
572.186,913.68
572.32,915.0
572.455,921.32
572.589,937.76
572.723,949.88
572.857,937.14
572.991,922.08
573.125,914.8
573.26,912.84
573.394,914.84
573.528,921.0
573.662,927.42
573.796,927.24
573.93,920.72
574.064,917.5
574.199,915.38
574.333,915.92
574.467,911.44
574.601,909.82
574.735,909.56
574.869,907.94
575.003,907.82
575.137,908.04
575.271,906.58
575.405,909.44
575.539,910.94
575.673,908.88
575.807,909.58
575.941,912.28
576.075,919.82
576.209,929.74
576.344,932.06
576.478,925.06
576.612,927.7
576.746,939.6
576.88,953.54
577.014,966.7
577.147,959.44
577.281,937.36
577.415,923.12
577.549,917.4
577.683,912.9
577.817,911.58
577.951,910.72
578.085,910.74
578.219,911.16
578.353,912.36
578.487,910.38
578.621,912.28
578.755,912.42
578.889,914.14
579.023,911.3
579.156,912.46
579.29,912.44
579.424,910.78
579.558,910.2
579.692,910.5
579.826,910.12
579.96,908.88
580.094,909.8
580.227,911.44
580.361,909.98
580.495,910.04
580.629,911.04
580.763,909.56
580.897,909.14
581.03,908.82
581.164,910.74
581.298,910.1
581.432,911.36
581.565,910.98
581.699,910.58
581.833,912.66
581.967,912.22
582.101,912.36
582.234,915.06
582.368,912.78
582.502,912.78
582.636,911.16
582.769,912.38
582.903,911.22
583.037,911.78
583.17,911.78
583.304,913.02
583.438,909.66
583.572,912.46
583.705,913.86
583.839,913.58
583.973,912.74
584.106,913.94
584.24,912.74
584.374,911.92
584.507,914.2
584.641,913.58
584.775,912.68
584.908,914.48
585.042,912.38
585.175,913.54
585.309,913.62
585.443,913.92
585.576,913.3
585.71,913.0
585.844,912.88
585.977,914.7
586.111,914.26
586.244,913.48
586.378,913.84
586.511,914.38
586.645,913.78
586.779,913.78
586.912,914.16
587.046,914.96
587.179,915.26
587.313,913.24
587.446,914.5
587.58,915.44
587.713,914.16
587.847,913.46
587.98,913.22
588.114,913.54
588.247,911.54
588.381,912.96
588.514,913.36
588.648,914.48
588.781,912.74
588.915,913.06
589.048,913.84
589.182,911.64
589.315,913.14
589.449,912.68
589.582,911.54
589.716,913.44
589.849,912.54
589.982,911.72
590.116,913.34
590.249,914.56
590.383,912.8
590.516,915.8
590.65,915.2
590.783,914.26
590.916,913.82
591.05,913.44
591.183,913.92
591.316,912.46
591.45,914.3
591.583,913.66
591.717,913.82
591.85,913.94
591.983,914.24
592.117,914.48
592.25,913.92
592.383,913.46
592.517,914.24
592.65,912.44
592.783,913.42
592.917,913.8
593.05,913.4
593.183,914.4
593.316,914.88
593.45,915.0
593.583,912.62
593.716,914.14
593.85,913.62
593.983,913.18
594.116,912.08
594.249,912.44
594.383,915.6
594.516,913.12
594.649,912.9
594.782,913.12
594.916,914.86
595.049,913.84
595.182,915.4
595.315,915.86
595.449,915.52
595.582,915.8
595.715,914.38
595.848,913.76
595.981,914.22
596.115,914.64
596.248,915.52
596.381,914.8
596.514,915.08
596.647,915.22
596.78,914.32
596.914,916.78
597.047,914.7
597.18,916.26
597.313,916.14
597.446,914.98
597.579,915.74
597.712,915.62
597.846,913.84
597.979,916.26
598.112,916.88
598.245,917.38
598.378,915.76
598.511,916.94
598.644,916.38
598.777,916.96
598.91,917.76
599.043,918.6
599.177,916.22
599.31,916.7
599.443,916.74
599.576,916.48
599.709,917.78
599.842,915.76
599.975,915.52
600.108,918.22
600.241,914.5
600.374,916.3
600.507,914.8
600.64,914.62
600.773,916.3
600.906,915.36
601.039,916.38
601.172,915.22
601.305,915.32
601.438,916.78
601.571,914.92
601.704,915.68
601.837,916.24
601.97,916.12
602.103,915.66
602.236,914.3
602.369,916.14
602.502,915.24
602.635,913.78
602.768,917.26
602.901,915.68
603.034,916.36
603.166,915.96
603.299,915.9
603.432,916.26
603.565,916.12
603.698,916.28
603.831,917.2
603.964,917.72
604.097,914.76
604.23,914.96
604.363,914.22
604.496,916.5
604.628,915.62
604.761,916.36
604.894,914.48
605.027,914.56
605.16,915.44
605.293,916.02
605.426,915.4
605.558,913.08
605.691,914.54
605.824,913.84
605.957,914.94
606.09,915.4
606.223,913.2
606.355,914.68
606.488,914.62
606.621,913.38
606.754,913.92
606.887,914.3
607.019,912.72
607.152,914.08
607.285,914.12
607.418,913.2
607.551,916.26
607.683,913.88
607.816,913.44
607.949,914.5
608.082,915.44
608.214,913.78
608.347,914.08
608.48,912.86
608.613,915.48
608.745,914.4
608.878,914.66
609.011,914.46
609.143,913.56
609.276,914.86
609.409,914.34
609.542,913.62
609.674,914.68
609.807,914.5
609.94,914.9
610.072,914.56
610.205,914.9
610.338,915.22
610.47,914.02
610.603,914.84
610.736,914.7
610.868,914.66
611.001,914.56
611.134,913.58
611.266,913.8
611.399,914.88
611.532,915.08
611.664,914.28
611.797,914.9
611.93,913.92
612.062,915.28
612.195,916.44
612.327,916.08
612.46,914.7
612.593,914.94
612.725,916.24
612.858,918.0
612.99,916.92
613.123,916.72
613.256,917.06
613.388,916.02
613.521,918.7
613.653,917.76
613.786,916.1
613.919,916.26
614.051,917.44
614.184,914.64
614.316,917.5
614.449,916.94
614.581,916.26
614.714,918.22
614.846,916.52
614.979,917.44
615.111,917.78
615.244,917.14
615.376,917.6
615.509,918.08
615.641,915.56
615.774,916.26
615.906,915.96
616.039,915.2
616.171,915.92
616.304,916.68
616.436,916.16
616.569,918.38
616.701,917.9
616.834,916.88
616.966,917.8
617.099,916.2
617.231,918.14
617.364,918.12
617.496,918.84
617.629,918.74
617.761,915.46
617.894,918.42
618.026,917.28
618.158,917.54
618.291,917.56
618.423,917.86
618.556,917.62
618.688,916.96
618.82,916.5
618.953,918.76
619.085,917.8
619.218,918.22
619.35,919.22
619.482,918.24
619.615,918.78
619.747,918.08
619.88,920.08
620.012,917.06
620.144,918.78
620.277,918.62
620.409,918.12
620.541,918.66
620.674,919.86
620.806,917.16
620.939,917.66
621.071,918.94
621.203,917.74
621.336,917.48
621.468,918.88
621.6,919.66
621.733,921.94
621.865,923.14
621.997,924.56
622.13,927.64
622.262,932.62
622.394,934.44
622.526,930.72
622.659,925.88
622.791,925.4
622.923,923.94
623.056,923.78
623.188,922.42
623.32,921.0
623.452,920.6
623.585,920.36
623.717,920.36
623.849,920.36
623.981,918.34
624.114,918.6
624.246,919.54
624.378,918.12
624.511,916.48
624.643,919.14
624.775,918.3
624.907,918.62
625.039,919.3
625.172,918.44
625.304,919.94
625.436,919.74
625.568,920.28
625.701,921.1
625.833,921.22
625.965,922.38
626.097,921.7
626.229,924.42
626.362,928.52
626.494,935.36
626.626,946.28
626.758,973.84
626.89,1001.74
627.022,1007.3
627.155,989.74
627.287,968.72
627.419,956.54
627.551,955.38
627.683,962.06
627.815,989.86
627.948,1029.02
628.08,1048.06
628.212,1047.76
628.344,1053.94
628.476,1073.98
628.608,1099.72
628.74,1101.84
628.873,1077.54
629.005,1053.4
629.137,1037.98
629.269,1036.04
629.401,1046.12
629.533,1056.76
629.665,1051.36
629.797,1032.64
629.929,1018.34
630.061,1017.0
630.194,1016.7
630.326,1019.12
630.458,1011.12
630.59,992.2
630.722,973.72
630.854,961.48
630.986,960.32
631.118,970.14
631.25,995.44
631.382,1016.84
631.514,1027.66
631.646,1047.04
631.778,1064.06
631.91,1044.88
632.042,1013.56
632.175,984.02
632.307,962.4
632.439,943.58
632.571,934.54
632.703,928.66
632.835,924.34
632.967,921.96
633.099,919.86
633.231,918.94
633.363,919.48
633.495,918.54
633.627,916.04
633.759,916.92
633.891,915.2
634.023,915.58
634.155,914.8
634.287,915.64
634.419,913.8
634.551,912.9
634.683,913.9
634.815,912.66
634.947,914.68
635.079,912.08
635.21,912.04
635.342,913.04
635.474,912.04
635.606,913.74
635.738,913.16
635.87,913.4
636.002,912.28
636.134,911.88
636.266,911.2
636.398,912.6
636.53,911.08
636.662,913.08
636.794,912.56
636.926,912.22
637.058,912.04
637.19,911.76
637.321,912.94
637.453,911.66
637.585,912.14
637.717,911.22
637.849,911.56
637.981,911.0
638.113,912.08
638.245,909.74
638.377,911.94
638.509,910.68
638.64,911.2
638.772,911.78
638.904,910.64
639.036,911.74
639.168,911.46
639.3,911.24
639.432,909.94
639.563,910.58
639.695,910.12
639.827,911.54
639.959,910.94
640.091,911.6
640.223,910.88
640.355,909.38
640.486,909.62
640.618,911.16
640.75,910.92
640.882,911.82
641.014,910.62
641.146,909.44
641.277,911.12
641.409,911.08
641.541,908.86
641.673,909.94
641.805,909.86
641.936,910.76
642.068,908.34
642.2,910.5
642.332,909.1
642.464,908.34
642.595,908.26
642.727,910.28
642.859,908.74
642.991,908.78
643.123,906.98
643.254,907.12
643.386,907.86
643.518,906.46
643.65,906.96
643.781,905.3
643.913,906.46
644.045,906.58
644.177,906.46
644.309,906.44
644.44,905.9
644.572,905.6
644.704,904.82
644.836,905.96
644.967,905.26
645.099,906.24
645.231,906.42
645.362,904.62
645.494,905.3
645.626,906.44
645.758,906.22
645.889,905.14
646.021,904.38
646.153,905.06
646.285,904.54
646.416,905.34
646.548,905.44
646.68,903.42
646.811,905.84
646.943,903.94
647.075,904.02
647.206,904.88
647.338,903.52
647.47,905.38
647.602,905.26
647.733,905.66
647.865,904.26
647.997,904.36
648.128,903.98
648.26,905.48
648.392,904.42
648.523,903.42
648.655,902.48
648.787,903.22
648.918,904.3
649.05,902.44
649.182,905.02
649.313,902.92
649.445,902.44
649.577,903.72
649.708,903.14
649.84,902.94
649.972,902.56
650.103,900.58
650.235,901.54
650.366,902.62
650.498,902.32
650.63,901.0
650.761,901.28
650.893,902.18
651.025,901.16
651.156,901.14
651.288,902.14
651.419,901.46
651.551,901.48
651.683,902.1
651.814,901.2
651.946,900.22
652.077,901.78
652.209,902.14
652.341,899.56
652.472,901.7
652.604,899.54
652.735,900.8
652.867,900.7
652.999,900.58
653.13,900.14
653.262,900.5
653.393,901.5
653.525,900.02
653.657,899.32
653.788,900.5
653.92,901.14
654.051,900.2
654.183,899.3
654.314,901.26
654.446,899.68
654.578,900.54
654.709,900.48
654.841,899.74
654.972,901.34
655.104,900.82
655.235,899.28
655.367,901.44
655.498,901.28
655.63,899.68
655.762,901.46
655.893,899.7
656.025,898.7
656.156,899.62
656.288,899.72
656.419,901.18
656.551,900.62
656.682,898.4
656.814,900.08
656.945,899.08
657.077,900.12
657.208,901.4
657.34,899.24
657.471,898.74
657.603,900.94
657.734,898.76
657.866,899.68
657.997,899.26
658.129,900.04
658.26,899.26
658.392,899.68
658.523,899.3
658.655,898.46
658.786,899.5
658.918,900.42
659.049,900.38
659.181,899.28
659.312,899.98
659.444,899.16
659.575,899.48
659.707,899.1
659.838,900.3
659.97,899.58
660.101,899.7
660.233,897.86
660.364,896.44
660.496,900.18
660.627,897.12
660.759,898.32
660.89,899.5
661.022,899.68
661.153,898.4
661.285,897.9
661.416,897.94
661.547,897.52
661.679,898.52
661.81,897.86
661.942,898.38
662.073,897.36
662.205,896.76
662.336,896.48
662.468,896.06
662.599,896.28
662.731,896.68
662.862,897.34
662.993,896.9
663.125,896.66
