nm,Intensity
526.549,831.18
526.686,831.78
526.823,832.16
526.959,831.76
527.096,831.48
527.233,831.0
527.37,830.94
527.506,831.58
527.643,831.72
527.78,831.9
527.917,831.54
528.053,830.78
528.19,831.46
528.327,831.38
528.463,831.26
528.6,831.24
528.737,831.72
528.873,831.26
529.01,831.76
529.147,831.04
529.283,831.28
529.42,831.78
529.556,831.06
529.693,831.4
529.83,831.22
529.966,830.94
530.103,831.7
530.239,830.86
530.376,831.3
530.512,831.86
530.649,831.2
530.785,831.48
530.922,831.14
531.058,831.8
531.195,831.66
531.331,830.78
531.468,831.56
531.604,831.28
531.741,831.38
531.877,831.46
532.014,839.28
532.15,872.42
532.287,866.2
532.423,837.04
532.559,831.86
532.696,831.58
532.832,831.64
532.968,831.6
533.105,831.7
533.241,831.44
533.378,831.14
533.514,831.04
533.65,832.1
533.787,836.68
533.923,854.88
534.059,875.2
534.196,880.78
534.332,881.06
534.468,878.54
534.604,876.44
534.741,876.16
534.877,874.4
535.013,871.24
535.149,868.2
535.286,865.96
535.422,864.32
535.558,862.74
535.694,860.48
535.83,859.74
535.967,860.44
536.103,860.16
536.239,863.3
536.375,860.8
536.511,857.08
536.647,855.38
536.784,854.82
536.92,854.88
537.056,853.02
537.192,853.8
537.328,854.38
537.464,853.8
537.6,853.58
537.736,854.56
537.872,855.04
538.008,854.92
538.145,854.58
538.281,855.24
538.417,854.4
538.553,854.18
538.689,853.46
538.825,852.42
538.961,852.78
539.097,851.82
539.233,851.5
539.369,851.78
539.505,851.28
539.641,849.16
539.777,849.58
539.912,849.8
540.048,848.8
540.184,849.24
540.32,848.54
540.456,849.3
540.592,848.46
540.728,848.64
540.864,848.24
541.0,848.06
541.136,848.98
541.271,849.12
541.407,847.18
541.543,848.24
541.679,848.96
541.815,848.76
541.951,848.6
542.087,847.96
542.222,848.14
542.358,849.0
542.494,848.72
542.63,848.72
542.765,848.68
542.901,848.3
543.037,848.22
543.173,848.3
543.308,850.1
543.444,848.8
543.58,848.96
543.716,849.62
543.851,849.42
543.987,849.8
544.123,849.56
544.258,850.58
544.394,850.3
544.53,852.46
544.665,852.44
544.801,853.66
544.937,854.92
545.072,854.98
545.208,854.34
545.344,854.24
545.479,853.66
545.615,852.58
545.75,851.0
545.886,850.18
546.022,849.04
546.157,848.7
546.293,847.78
546.428,847.96
546.564,847.18
546.699,847.42
546.835,847.9
546.971,847.62
547.106,847.22
547.242,847.5
547.377,848.06
547.513,847.74
547.648,846.64
547.784,848.42
547.919,848.26
548.054,847.72
548.19,847.46
548.325,848.2
548.461,848.28
548.596,848.64
548.732,849.46
548.867,849.54
549.003,849.98
549.138,850.4
549.273,850.82
549.409,852.94
549.544,853.32
549.679,854.54
549.815,854.98
549.95,856.26
550.086,857.14
550.221,856.66
550.356,853.96
550.492,854.0
550.627,852.48
550.762,851.46
550.898,850.3
551.033,850.34
551.168,848.86
551.303,848.26
551.439,848.7
551.574,848.82
551.709,848.4
551.844,847.96
551.98,848.6
552.115,847.46
552.25,848.22
552.385,846.9
552.521,848.44
552.656,847.78
552.791,847.58
552.926,847.6
553.061,847.78
553.197,848.38
553.332,849.24
553.467,849.78
553.602,849.48
553.737,849.48
553.872,848.34
554.007,849.0
554.143,848.78
554.278,849.08
554.413,849.0
554.548,849.18
554.683,848.56
554.818,849.82
554.953,849.14
555.088,849.3
555.223,849.46
555.358,849.6
555.493,849.5
555.629,848.96
555.764,849.82
555.899,850.62
556.034,850.04
556.169,850.24
556.304,850.26
556.439,849.84
556.574,850.58
556.709,850.72
556.844,852.16
556.979,851.08
557.114,851.04
557.248,852.2
557.383,851.84
557.518,853.02
557.653,852.78
557.788,853.58
557.923,853.56
558.058,853.92
558.193,853.94
558.328,852.16
558.463,853.02
558.598,853.22
558.733,853.2
558.867,852.96
559.002,851.7
559.137,853.04
559.272,852.42
559.407,851.54
559.542,851.78
559.677,852.34
559.811,852.0
559.946,852.32
560.081,851.22
560.216,851.62
560.351,851.6
560.485,851.12
560.62,851.16
560.755,851.44
560.89,851.98
561.024,851.74
561.159,850.76
561.294,852.24
561.429,852.16
561.563,851.56
561.698,852.02
561.833,852.62
561.968,852.56
562.102,852.94
562.237,852.68
562.372,853.54
562.506,855.3
562.641,855.78
562.776,854.78
562.91,855.3
563.045,855.78
563.18,858.12
563.314,858.18
563.449,857.94
563.584,859.96
563.718,862.52
563.853,872.64
563.987,900.8
564.122,916.92
564.257,891.42
564.391,871.86
564.526,867.96
564.66,867.94
564.795,867.98
564.93,866.86
565.064,864.5
565.199,863.9
565.333,862.14
565.468,860.74
565.602,862.96
565.737,864.54
565.871,869.6
566.006,884.4
566.14,916.94
566.275,916.1
566.409,885.4
566.544,869.72
566.678,862.3
566.813,860.28
566.947,860.24
567.082,859.56
567.216,859.76
567.351,860.34
567.485,863.3
567.619,864.06
567.754,859.44
567.888,858.68
568.023,857.04
568.157,855.72
568.291,856.56
568.426,857.18
568.56,856.28
568.695,856.58
568.829,857.2
568.963,856.76
569.098,856.72
569.232,857.48
569.366,857.12
569.501,858.3
569.635,858.24
569.769,858.16
569.904,858.16
570.038,858.66
570.172,859.6
570.307,859.42
570.441,860.46
570.575,862.34
570.709,864.24
570.844,863.54
570.978,865.98
571.112,867.5
571.247,870.54
571.381,886.12
571.515,942.56
571.649,962.94
571.783,906.52
571.918,886.0
572.052,878.04
572.186,874.28
572.32,870.02
572.455,867.96
572.589,864.28
572.723,863.7
572.857,861.04
572.991,861.58
573.125,861.84
573.26,862.02
573.394,860.54
573.528,860.78
573.662,862.12
573.796,863.06
573.93,866.8
574.064,867.76
574.199,864.5
574.333,862.16
574.467,860.96
574.601,859.14
574.735,860.56
574.869,859.22
575.003,860.56
575.137,861.46
575.271,862.36
575.405,870.8
575.539,892.06
575.673,900.4
575.807,890.06
575.941,889.1
576.075,903.48
576.209,928.54
576.344,948.18
576.478,936.56
576.612,918.48
576.746,912.34
576.88,912.32
577.014,911.88
577.147,908.24
577.281,899.58
577.415,887.38
577.549,876.84
577.683,872.46
577.817,867.92
577.951,866.92
578.085,864.5
578.219,864.08
578.353,863.7
578.487,862.24
578.621,862.46
578.755,863.94
578.889,862.78
579.023,864.12
579.156,863.76
579.29,863.26
579.424,863.1
579.558,863.68
579.692,863.28
579.826,863.28
579.96,863.1
580.094,863.28
580.227,863.76
580.361,863.94
580.495,863.04
580.629,865.46
580.763,863.74
580.897,862.9
581.03,864.42
581.164,864.66
581.298,863.5
581.432,864.28
581.565,865.0
581.699,865.42
581.833,864.78
581.967,866.6
582.101,865.78
582.234,866.94
582.368,865.78
582.502,864.36
582.636,865.9
582.769,865.42
582.903,866.58
583.037,866.7
583.17,866.88
583.304,865.3
583.438,866.42
583.572,866.14
583.705,866.1
583.839,867.52
583.973,868.44
584.106,868.26
584.24,866.5
584.374,868.06
584.507,867.72
584.641,868.0
584.775,868.0
584.908,870.0
585.042,868.44
585.175,868.22
585.309,870.06
585.443,870.82
585.576,870.56
585.71,871.46
585.844,872.16
585.977,872.08
586.111,871.58
586.244,873.42
586.378,872.52
586.511,875.2
586.645,875.3
586.779,874.4
586.912,875.4
587.046,875.04
587.179,877.38
587.313,876.08
587.446,876.58
587.58,876.5
587.713,878.16
587.847,878.98
587.98,877.96
588.114,879.08
588.247,879.38
588.381,879.38
588.514,879.78
588.648,881.52
588.781,880.92
588.915,880.74
589.048,882.74
589.182,883.58
589.315,884.6
589.449,883.9
589.582,884.48
589.716,885.18
589.849,884.76
589.982,886.6
590.116,885.2
590.249,887.78
590.383,887.76
590.516,889.92
590.65,888.04
590.783,888.1
590.916,890.02
591.05,890.58
591.183,891.36
591.316,891.18
591.45,891.48
591.583,893.72
591.717,891.58
591.85,892.84
591.983,894.38
592.117,894.06
592.25,895.04
592.383,894.92
592.517,895.7
592.65,898.18
592.783,894.96
592.917,897.02
593.05,897.06
593.183,898.06
593.316,898.52
593.45,897.68
593.583,898.56
593.716,901.04
593.85,897.92
593.983,898.82
594.116,899.1
594.249,899.62
594.383,901.16
594.516,901.4
594.649,901.52
594.782,902.58
594.916,902.82
595.049,901.5
595.182,902.18
595.315,904.14
595.449,904.76
595.582,904.84
595.715,907.06
595.848,905.76
595.981,905.6
596.115,906.76
596.248,907.74
596.381,909.76
596.514,908.66
596.647,909.66
596.78,910.08
596.914,910.38
597.047,912.02
597.18,911.9
597.313,911.1
597.446,911.82
597.579,911.56
597.712,913.1
597.846,915.12
597.979,915.08
598.112,915.26
598.245,916.78
598.378,916.62
598.511,918.38
598.644,917.48
598.777,920.2
598.91,921.06
599.043,920.36
599.177,920.5
599.31,921.08
599.443,923.24
599.576,924.26
599.709,923.62
599.842,923.52
599.975,924.72
600.108,925.86
600.241,924.34
600.374,926.02
600.507,925.68
600.64,926.2
600.773,926.94
600.906,927.34
601.039,926.16
601.172,926.56
601.305,927.96
601.438,928.26
601.571,928.62
601.704,928.48
601.837,928.82
601.97,930.02
602.103,930.6
602.236,930.26
602.369,933.82
602.502,932.14
602.635,932.42
602.768,930.8
602.901,930.08
603.034,930.14
603.166,931.06
603.299,931.7
603.432,934.64
603.565,932.0
603.698,932.34
603.831,931.86
603.964,932.9
604.097,932.06
604.23,932.5
604.363,932.06
604.496,931.26
604.628,931.5
604.761,930.82
604.894,931.04
605.027,929.56
605.16,930.26
605.293,931.54
605.426,930.56
605.558,928.84
605.691,927.56
605.824,929.28
605.957,927.86
606.09,928.18
606.223,926.72
606.355,926.32
606.488,928.9
606.621,927.74
606.754,927.66
606.887,926.64
607.019,927.02
607.152,927.24
607.285,928.82
607.418,927.82
607.551,926.4
607.683,927.08
607.816,927.98
607.949,928.1
608.082,927.86
608.214,928.28
608.347,930.16
608.48,927.82
608.613,927.72
608.745,928.58
608.878,928.36
609.011,928.76
609.143,926.82
609.276,930.18
609.409,929.84
609.542,927.62
609.674,928.42
609.807,928.8
609.94,927.42
610.072,926.48
610.205,926.08
610.338,926.16
610.47,925.96
610.603,927.36
610.736,927.46
610.868,929.08
611.001,925.28
611.134,926.12
611.266,926.76
611.399,928.3
611.532,926.8
611.664,927.14
611.797,926.74
611.93,926.52
612.062,925.68
612.195,927.46
612.327,925.06
612.46,926.18
612.593,925.8
612.725,926.08
612.858,927.08
612.99,926.2
613.123,926.4
613.256,925.5
613.388,925.18
613.521,926.2
613.653,925.78
613.786,926.16
613.919,925.06
614.051,925.16
614.184,924.22
614.316,923.46
614.449,923.72
614.581,924.88
614.714,923.1
614.846,923.04
614.979,923.4
615.111,922.6
615.244,922.0
615.376,922.6
615.509,920.6
615.641,922.34
615.774,921.38
615.906,921.84
616.039,919.72
616.171,920.78
616.304,923.0
616.436,919.84
616.569,919.48
616.701,920.38
616.834,920.2
616.966,920.14
617.099,921.68
617.231,922.08
617.364,922.26
617.496,923.24
617.629,921.3
617.761,920.82
617.894,921.96
618.026,922.04
618.158,922.68
618.291,920.68
618.423,921.42
618.556,920.86
618.688,919.2
618.82,919.2
618.953,917.96
619.085,919.24
619.218,920.34
619.35,918.64
619.482,920.82
619.615,920.12
619.747,921.54
619.88,919.92
620.012,920.14
620.144,918.7
620.277,916.54
620.409,917.94
620.541,917.08
620.674,918.28
620.806,917.96
620.939,919.16
621.071,920.92
621.203,920.48
621.336,922.48
621.468,922.64
621.6,926.76
621.733,929.16
621.865,933.06
621.997,935.66
622.13,941.18
622.262,941.58
622.394,943.44
622.526,938.08
622.659,935.3
622.791,929.58
622.923,923.32
623.056,920.56
623.188,917.7
623.32,916.28
623.452,912.6
623.585,911.4
623.717,912.1
623.849,910.64
623.981,911.84
624.114,911.9
624.246,909.48
624.378,909.08
624.511,909.76
624.643,910.4
624.775,910.28
624.907,910.4
625.039,908.48
625.172,909.84
625.304,910.56
625.436,910.8
625.568,912.7
625.701,915.16
625.833,915.08
625.965,917.0
626.097,919.52
626.229,924.74
626.362,934.28
626.494,947.86
626.626,972.48
626.758,1021.44
626.89,1104.88
627.022,1228.72
627.155,1354.26
627.287,1403.78
627.419,1365.92
627.551,1296.98
627.683,1242.1
627.815,1203.02
627.948,1178.14
628.08,1173.28
628.212,1184.92
628.344,1247.46
628.476,1385.12
628.608,1495.4
628.74,1391.2
628.873,1268.98
629.005,1221.48
629.137,1206.46
629.269,1189.96
629.401,1174.64
629.533,1148.98
629.665,1126.48
629.797,1104.9
629.929,1093.22
630.061,1083.0
630.194,1078.5
630.326,1075.88
630.458,1073.88
630.59,1063.94
630.722,1045.94
630.854,1029.22
630.986,996.72
631.118,971.98
631.25,951.76
631.382,936.26
631.514,929.42
631.646,924.16
631.778,920.82
631.91,915.12
632.042,911.78
632.175,910.42
632.307,906.58
632.439,902.98
632.571,901.84
632.703,899.74
632.835,898.42
632.967,896.94
633.099,895.04
633.231,895.52
633.363,893.7
633.495,893.02
633.627,893.16
633.759,891.62
633.891,890.52
634.023,891.06
634.155,891.04
634.287,889.6
634.419,888.84
634.551,887.96
634.683,888.48
634.815,888.8
634.947,887.86
635.079,886.9
635.21,886.82
635.342,885.48
635.474,886.48
635.606,886.16
635.738,887.12
635.87,885.82
636.002,885.46
636.134,885.32
636.266,886.48
636.398,884.84
636.53,884.88
636.662,884.94
636.794,885.86
636.926,884.78
637.058,883.5
637.19,882.42
637.321,883.74
637.453,882.42
637.585,881.92
637.717,882.5
637.849,881.02
637.981,882.58
638.113,883.44
638.245,881.92
638.377,882.14
638.509,881.24
638.64,881.32
638.772,880.84
638.904,882.02
639.036,881.64
639.168,881.76
639.3,880.72
639.432,881.36
639.563,882.48
639.695,880.96
639.827,881.1
639.959,881.86
640.091,881.32
640.223,882.28
640.355,881.84
640.486,881.66
640.618,881.8
640.75,881.34
640.882,881.22
641.014,881.24
641.146,881.26
641.277,882.2
641.409,882.74
641.541,882.06
641.673,881.92
641.805,880.64
641.936,882.06
642.068,881.92
642.2,881.58
642.332,882.14
642.464,880.62
642.595,881.38
642.727,882.9
642.859,881.72
642.991,883.38
643.123,882.82
643.254,882.48
643.386,881.4
643.518,881.64
643.65,882.26
643.781,881.44
643.913,881.4
644.045,881.56
644.177,882.46
644.309,882.24
644.44,882.74
644.572,881.64
644.704,881.32
644.836,882.0
644.967,882.84
645.099,883.28
645.231,882.6
645.362,882.28
645.494,882.92
645.626,882.7
645.758,883.7
645.889,883.68
646.021,881.7
646.153,883.74
646.285,882.38
646.416,883.92
646.548,882.12
646.68,884.8
646.811,881.92
646.943,884.98
647.075,882.32
647.206,883.6
647.338,882.88
647.47,883.1
647.602,884.18
647.733,884.0
647.865,883.6
647.997,885.3
648.128,883.94
648.26,883.7
648.392,883.66
648.523,883.44
648.655,883.9
648.787,883.38
648.918,884.36
649.05,883.04
649.182,883.6
649.313,882.56
649.445,883.72
649.577,883.4
649.708,884.54
649.84,883.3
649.972,884.3
650.103,885.56
650.235,883.98
650.366,884.7
650.498,884.1
650.63,883.94
650.761,884.3
650.893,883.88
651.025,885.46
651.156,884.86
651.288,884.02
651.419,884.74
651.551,884.76
651.683,884.38
651.814,884.76
651.946,885.92
652.077,885.08
652.209,886.66
652.341,886.42
652.472,884.48
652.604,884.84
652.735,884.38
652.867,885.86
652.999,886.02
653.13,885.06
653.262,885.7
653.393,886.22
653.525,885.82
653.657,886.5
653.788,885.7
653.92,886.22
654.051,887.1
654.183,886.9
654.314,885.38
654.446,886.98
654.578,886.54
654.709,885.7
654.841,886.22
654.972,887.16
655.104,887.46
655.235,885.7
655.367,886.92
655.498,886.68
655.63,886.42
655.762,886.44
655.893,886.56
656.025,887.0
656.156,886.36
656.288,885.7
656.419,886.38
656.551,887.38
656.682,887.16
656.814,886.52
656.945,885.46
657.077,887.06
657.208,887.54
657.34,887.26
657.471,886.16
657.603,885.98
657.734,886.76
657.866,887.38
657.997,886.04
658.129,887.28
658.26,886.58
658.392,887.3
658.523,886.5
658.655,887.4
658.786,886.06
658.918,886.76
659.049,885.64
659.181,886.7
659.312,887.7
659.444,886.3
659.575,885.52
659.707,885.72
659.838,886.52
659.97,886.2
660.101,886.62
660.233,887.86
660.364,885.8
660.496,886.72
660.627,886.26
660.759,886.08
660.89,883.66
661.022,884.96
661.153,884.84
661.285,884.58
661.416,883.7
661.547,884.72
661.679,882.58
661.81,883.56
661.942,882.9
662.073,883.16
662.205,883.7
662.336,882.22
662.468,883.1
662.599,881.88
662.731,880.5
662.862,883.54
662.993,881.92
663.125,882.56
