nm,Intensity
526.547,833.0
526.684,832.65
526.821,832.65
526.958,833.05
527.095,831.35
527.232,832.9
527.368,832.85
527.505,832.3
527.642,832.9
527.779,832.85
527.916,832.55
528.052,831.9
528.189,832.2
528.326,831.45
528.463,832.4
528.599,832.45
528.736,832.0
528.873,832.45
529.009,832.05
529.146,831.65
529.283,832.5
529.419,832.7
529.556,832.5
529.693,832.7
529.829,832.95
529.966,832.75
530.103,832.2
530.239,833.1
530.376,832.25
530.512,833.15
530.649,833.4
530.785,832.0
530.922,832.35
531.059,832.85
531.195,832.5
531.332,832.7
531.468,832.05
531.605,832.55
531.741,832.35
531.878,833.1
532.014,834.7
532.151,841.0
532.287,840.2
532.423,833.55
532.56,833.7
532.696,832.9
532.833,831.8
532.969,832.35
533.106,832.65
533.242,832.9
533.378,832.3
533.515,831.15
533.651,832.8
533.787,835.95
533.924,843.5
534.06,849.55
534.196,853.0
534.333,851.1
534.469,850.65
534.605,851.45
534.742,851.85
534.878,854.55
535.014,852.0
535.15,856.2
535.287,855.9
535.423,852.45
535.559,850.05
535.695,849.05
535.832,849.05
535.968,848.6
536.104,847.65
536.24,847.55
536.376,848.65
536.513,845.6
536.649,845.55
536.785,846.95
536.921,848.6
537.057,850.05
537.193,851.2
537.329,851.7
537.465,849.7
537.602,847.3
537.738,843.6
537.874,844.25
538.01,845.0
538.146,846.95
538.282,846.95
538.418,844.75
538.554,845.05
538.69,844.35
538.826,844.25
538.962,843.6
539.098,844.5
539.234,844.8
539.37,846.9
539.506,846.5
539.642,843.75
539.778,841.9
539.914,843.05
540.05,843.2
540.186,841.9
540.322,841.45
540.458,842.15
540.594,840.85
540.729,842.65
540.865,840.55
541.001,841.7
541.137,841.1
541.273,845.1
541.409,844.0
541.545,842.85
541.68,843.25
541.816,840.9
541.952,842.0
542.088,842.05
542.224,843.0
542.36,841.15
542.495,840.9
542.631,841.0
542.767,840.85
542.903,840.5
543.038,840.65
543.174,842.6
543.31,843.25
543.446,844.3
543.581,851.9
543.717,860.15
543.853,856.35
543.988,850.95
544.124,854.8
544.26,855.15
544.395,847.75
544.531,843.8
544.667,842.1
544.802,842.4
544.938,843.15
545.074,844.45
545.209,845.75
545.345,847.05
545.481,846.05
545.616,845.5
545.752,843.35
545.887,843.7
546.023,842.3
546.158,843.4
546.294,846.15
546.43,849.5
546.565,853.8
546.701,849.5
546.836,845.4
546.972,843.0
547.107,843.15
547.243,842.05
547.378,843.55
547.514,843.85
547.649,844.4
547.785,845.5
547.92,842.55
548.056,842.75
548.191,841.55
548.326,841.35
548.462,841.5
548.597,840.4
548.733,841.05
548.868,841.55
549.004,842.35
549.139,843.55
549.274,841.45
549.41,842.25
549.545,843.15
549.68,843.45
549.816,843.75
549.951,844.2
550.086,845.1
550.222,846.15
550.357,847.85
550.492,847.65
550.628,844.0
550.763,841.5
550.898,842.7
551.034,841.75
551.169,840.85
551.304,840.1
551.439,842.3
551.575,840.65
551.71,842.1
551.845,842.0
551.98,843.1
552.116,843.25
552.251,840.55
552.386,841.05
552.521,841.3
552.656,842.5
552.792,841.9
552.927,840.8
553.062,841.55
553.197,840.95
553.332,842.15
553.467,840.65
553.603,841.85
553.738,842.35
553.873,841.3
554.008,842.25
554.143,841.05
554.278,843.65
554.413,842.1
554.548,841.85
554.683,842.45
554.819,843.8
554.954,844.0
555.089,843.3
555.224,843.1
555.359,843.35
555.494,844.4
555.629,845.5
555.764,847.05
555.899,854.6
556.034,871.45
556.169,885.35
556.304,865.95
556.439,852.45
556.574,852.2
556.709,849.5
556.844,851.4
556.979,856.0
557.114,862.6
557.249,858.55
557.384,850.0
557.519,848.0
557.653,846.3
557.788,846.1
557.923,845.65
558.058,845.1
558.193,844.05
558.328,843.45
558.463,846.15
558.598,844.95
558.733,845.4
558.867,846.9
559.002,846.8
559.137,846.65
559.272,845.3
559.407,844.15
559.542,845.1
559.677,844.5
559.811,845.15
559.946,847.25
560.081,846.7
560.216,850.9
560.351,850.0
560.485,848.25
560.62,847.35
560.755,846.85
560.89,847.8
561.024,852.85
561.159,861.75
561.294,868.45
561.429,859.5
561.563,849.5
561.698,850.15
561.833,853.0
561.967,855.55
562.102,864.6
562.237,898.9
562.371,942.7
562.506,904.2
562.641,863.7
562.775,853.9
562.91,850.65
563.045,851.1
563.179,853.2
563.314,855.1
563.449,855.4
563.583,850.95
563.718,852.25
563.853,849.25
563.987,847.7
564.122,847.0
564.256,847.95
564.391,846.45
564.525,847.2
564.66,848.0
564.795,847.7
564.929,847.65
565.064,848.2
565.198,848.1
565.333,849.65
565.467,850.15
565.602,849.3
565.736,848.55
565.871,849.2
566.005,849.7
566.14,849.4
566.274,851.05
566.409,853.35
566.543,856.8
566.678,857.6
566.812,861.15
566.947,867.95
567.081,865.8
567.216,863.85
567.35,866.95
567.484,874.95
567.619,865.7
567.753,854.85
567.888,849.95
568.022,851.25
568.156,848.15
568.291,849.4
568.425,849.6
568.56,849.4
568.694,850.5
568.828,851.8
568.963,853.45
569.097,857.55
569.231,856.75
569.366,852.45
569.5,851.25
569.634,851.5
569.769,849.05
569.903,849.15
570.037,850.25
570.172,853.0
570.306,854.55
570.44,852.35
570.575,849.15
570.709,849.05
570.843,849.25
570.977,849.2
571.112,849.25
571.246,849.45
571.38,850.3
571.514,849.8
571.649,851.7
571.783,852.75
571.917,853.2
572.051,852.15
572.185,852.2
572.32,851.8
572.454,857.25
572.588,865.3
572.722,872.95
572.856,866.05
572.991,857.05
573.125,852.75
573.259,851.15
573.393,853.1
573.527,853.25
573.661,861.3
573.795,861.25
573.93,854.7
574.064,853.15
574.198,853.2
574.332,852.05
574.466,849.7
574.6,847.9
574.734,847.25
574.868,847.6
575.002,847.55
575.136,846.75
575.271,847.7
575.405,846.95
575.539,847.05
575.673,849.3
575.807,848.55
575.941,848.25
576.075,854.0
576.209,861.75
576.343,859.2
576.477,858.3
576.611,862.45
576.745,868.25
576.879,877.6
577.013,886.55
577.147,878.25
577.281,864.05
577.415,856.35
577.549,850.55
577.683,848.65
577.817,847.4
577.951,848.3
578.085,848.1
578.218,845.65
578.352,847.5
578.486,847.05
578.62,846.9
578.754,846.5
578.888,846.15
579.022,844.95
579.156,845.55
579.29,846.45
579.424,845.45
579.557,847.3
579.691,846.25
579.825,846.5
579.959,845.55
580.093,846.65
580.227,845.6
580.361,846.3
580.494,846.15
580.628,845.55
580.762,845.25
580.896,845.75
581.03,845.65
581.164,845.8
581.297,845.55
581.431,844.5
581.565,844.75
581.699,845.7
581.832,846.3
581.966,846.25
582.1,845.2
582.234,845.55
582.368,845.05
582.501,847.15
582.635,845.1
582.769,846.3
582.903,845.55
583.036,845.75
583.17,847.45
583.304,846.95
583.437,845.75
583.571,846.25
583.705,845.2
583.838,846.35
583.972,846.4
584.106,845.8
584.24,845.75
584.373,845.85
584.507,846.55
584.641,847.1
584.774,847.15
584.908,846.5
585.041,847.3
585.175,846.35
585.309,846.5
585.442,844.15
585.576,846.85
585.71,846.85
585.843,847.55
585.977,845.35
586.11,846.35
586.244,845.35
586.378,845.85
586.511,846.1
586.645,846.2
586.778,845.95
586.912,845.75
587.045,846.55
587.179,847.0
587.313,847.1
587.446,845.55
587.58,846.4
587.713,846.8
587.847,847.95
587.98,847.25
588.114,846.1
588.247,846.6
588.381,847.35
588.514,847.1
588.648,847.65
588.781,845.9
588.915,847.35
589.048,844.4
589.182,846.35
589.315,846.05
589.449,847.4
589.582,847.7
589.715,846.3
589.849,845.6
589.982,846.9
590.116,846.35
590.249,846.7
590.383,847.75
590.516,847.05
590.649,847.2
590.783,847.55
590.916,846.1
591.05,847.2
591.183,845.95
591.316,846.35
591.45,847.3
591.583,848.7
591.717,846.7
591.85,844.9
591.983,847.05
592.117,847.05
592.25,846.65
592.383,846.3
592.517,846.6
592.65,845.65
592.783,847.05
592.917,846.8
593.05,846.9
593.183,847.4
593.317,846.8
593.45,846.9
593.583,848.1
593.717,847.55
593.85,846.9
593.983,846.8
594.116,846.65
594.25,846.9
594.383,846.35
594.516,847.65
594.649,848.65
594.783,847.5
594.916,847.45
595.049,846.65
595.182,847.8
595.316,847.55
595.449,847.2
595.582,846.95
595.715,848.35
595.849,846.8
595.982,847.6
596.115,847.45
596.248,846.4
596.381,845.1
596.514,847.95
596.648,847.75
596.781,846.5
596.914,847.35
597.047,846.4
597.18,848.0
597.313,848.3
597.447,846.85
597.58,847.9
597.713,847.4
597.846,848.05
597.979,847.1
598.112,848.65
598.245,848.45
598.379,846.65
598.512,847.95
598.645,847.65
598.778,848.35
598.911,847.05
599.044,847.75
599.177,848.2
599.31,848.7
599.443,848.65
599.576,847.2
599.709,847.85
599.842,848.45
599.975,846.65
600.109,846.9
600.242,848.7
600.375,846.9
600.508,848.0
600.641,848.0
600.774,847.5
600.907,848.1
601.04,847.75
601.173,847.05
601.306,846.9
601.439,848.05
601.572,846.8
601.705,847.3
601.838,848.2
601.971,849.0
602.104,848.0
602.237,847.35
602.37,845.4
602.503,848.05
602.636,848.05
602.768,847.8
602.901,846.45
603.034,847.35
603.167,848.1
603.3,847.65
603.433,847.4
603.566,849.05
603.699,848.1
603.832,848.6
603.965,848.65
604.098,846.65
604.231,848.05
604.364,849.25
604.496,847.95
604.629,847.95
604.762,849.5
604.895,849.55
605.028,848.1
605.161,847.45
605.294,847.95
605.427,848.5
605.559,846.9
605.692,848.3
605.825,848.6
605.958,848.15
606.091,849.05
606.224,849.35
606.356,847.5
606.489,848.35
606.622,848.15
606.755,847.45
606.888,848.75
607.02,847.85
607.153,849.05
607.286,848.1
607.419,849.5
607.552,848.75
607.684,848.85
607.817,848.0
607.95,848.1
608.083,847.65
608.215,848.25
608.348,848.6
608.481,848.15
608.614,848.0
608.746,846.75
608.879,847.6
609.012,847.3
609.145,848.8
609.277,849.0
609.41,847.15
609.543,848.85
609.675,847.55
609.808,846.95
609.941,847.65
610.074,848.95
610.206,847.65
610.339,848.15
610.472,848.25
610.604,849.2
610.737,846.85
610.87,847.45
611.002,848.2
611.135,847.3
611.268,848.7
611.4,847.95
611.533,847.75
611.666,847.9
611.798,846.9
611.931,848.85
612.063,847.6
612.196,848.55
612.329,848.95
612.461,848.0
612.594,848.65
612.727,848.55
612.859,848.6
612.992,848.35
613.124,848.1
613.257,848.7
613.39,849.45
613.522,847.9
613.655,848.65
613.787,848.0
613.92,848.65
614.052,849.1
614.185,849.2
614.317,849.15
614.45,848.85
614.583,848.45
614.715,847.3
614.848,848.4
614.98,848.9
615.113,850.35
615.245,850.15
615.378,850.35
615.51,850.55
615.643,847.85
615.775,847.45
615.908,848.45
616.04,848.75
616.173,850.4
616.305,848.65
616.438,849.25
616.57,849.95
616.703,848.5
616.835,848.3
616.968,849.6
617.1,849.95
617.233,848.75
617.365,849.25
617.498,850.7
617.63,849.95
617.762,850.55
617.895,849.75
618.027,850.4
618.16,850.45
618.292,850.8
618.425,850.15
618.557,849.6
618.689,851.05
618.822,848.75
618.954,848.9
619.087,850.3
619.219,850.5
619.351,850.1
619.484,851.15
619.616,851.2
619.749,851.45
619.881,850.9
620.013,850.2
620.146,851.05
620.278,851.15
620.41,850.8
620.543,851.9
620.675,850.8
620.808,852.3
620.94,851.0
621.072,850.45
621.205,849.2
621.337,850.9
621.469,851.85
621.602,854.0
621.734,853.9
621.866,856.95
621.998,856.3
622.131,858.05
622.263,862.65
622.395,863.25
622.528,859.95
622.66,857.55
622.792,856.45
622.925,853.1
623.057,854.0
623.189,855.15
623.321,852.6
623.454,851.6
623.586,851.95
623.718,852.2
623.85,851.05
623.983,851.4
624.115,850.1
624.247,850.4
624.379,851.0
624.512,849.75
624.644,851.2
624.776,851.25
624.908,850.35
625.041,850.95
625.173,850.1
625.305,852.7
625.437,851.35
625.569,851.45
625.702,853.8
625.834,852.0
625.966,854.25
626.098,855.65
626.23,855.35
626.363,859.05
626.495,865.5
626.627,875.4
626.759,899.2
626.891,917.85
627.024,923.65
627.156,910.15
627.288,893.2
627.42,885.0
627.552,879.1
627.684,886.75
627.816,911.4
627.949,948.8
628.081,967.6
628.213,965.55
628.345,974.1
628.477,991.35
628.609,1011.35
628.741,1015.6
628.874,1001.3
629.006,983.35
629.138,969.6
629.27,960.35
629.402,967.45
629.534,971.6
629.666,965.9
629.798,948.65
629.93,941.25
630.062,936.65
630.195,940.65
630.327,941.5
630.459,932.55
630.591,919.4
630.723,903.4
630.855,894.15
630.987,891.4
631.119,901.7
631.251,923.1
631.383,944.45
631.515,951.85
631.647,960.25
631.779,967.7
631.911,959.95
632.043,936.9
632.175,917.35
632.307,896.5
632.439,878.35
632.571,869.85
632.703,862.4
632.835,857.85
632.967,857.8
633.099,854.7
633.231,853.15
633.363,852.45
633.495,851.8
633.627,853.8
633.759,850.2
633.891,849.55
634.023,851.1
634.155,850.6
634.287,850.5
634.419,849.15
634.551,848.25
634.683,847.65
634.815,847.25
634.947,847.8
635.079,848.2
635.211,848.6
635.343,848.7
635.475,847.15
635.607,847.1
635.739,847.45
635.871,848.3
636.003,848.15
636.135,847.85
636.267,848.3
636.398,848.05
636.53,848.7
636.662,848.1
636.794,846.85
636.926,848.6
637.058,847.05
637.19,848.45
637.322,847.85
637.454,847.95
637.586,846.1
637.717,848.45
637.849,848.15
637.981,847.05
638.113,846.8
638.245,847.55
638.377,847.8
638.509,847.25
638.641,847.4
638.773,848.1
638.904,848.3
639.036,847.9
639.168,847.85
639.3,848.8
639.432,847.9
639.564,847.5
639.695,847.95
639.827,848.0
639.959,848.05
640.091,848.1
640.223,848.65
640.355,848.45
640.486,848.35
640.618,847.3
640.75,845.9
640.882,847.25
641.014,848.4
641.146,847.6
641.277,847.85
641.409,848.85
641.541,849.0
641.673,848.2
641.805,848.15
641.936,847.7
642.068,847.8
642.2,848.3
642.332,848.35
642.464,847.4
642.595,847.3
642.727,845.95
642.859,846.95
642.991,847.0
643.122,847.05
643.254,847.75
643.386,846.05
643.518,847.05
643.649,846.05
643.781,845.05
643.913,846.25
644.045,847.15
644.176,846.85
644.308,846.45
644.44,845.5
644.572,844.9
644.703,847.8
644.835,846.55
644.967,845.55
645.099,847.05
645.23,845.65
645.362,846.85
645.494,845.65
645.625,846.95
645.757,846.8
645.889,847.7
646.021,846.45
646.152,845.35
646.284,847.2
646.416,847.05
646.547,846.9
646.679,847.85
646.811,847.45
646.942,846.1
647.074,847.25
647.206,847.45
647.337,847.3
647.469,846.5
647.601,847.5
647.732,847.3
647.864,847.05
647.996,846.7
648.127,848.2
648.259,847.45
648.391,847.45
648.522,847.35
648.654,849.05
648.786,848.65
648.917,849.55
649.049,848.7
649.181,848.6
649.312,848.8
649.444,851.35
649.576,851.8
649.707,851.85
649.839,851.75
649.971,851.25
650.102,852.8
650.234,851.25
650.365,849.85
650.497,851.5
650.629,850.6
650.76,847.65
650.892,847.85
651.023,847.2
651.155,848.3
651.287,847.95
651.418,846.4
651.55,847.65
651.682,847.1
651.813,846.5
651.945,848.05
652.076,847.8
652.208,846.75
652.339,844.1
652.471,847.05
652.603,845.95
652.734,846.95
652.866,846.6
652.997,846.8
653.129,845.6
653.261,846.4
653.392,847.2
653.524,845.75
653.655,846.35
653.787,847.4
653.918,848.1
654.05,846.4
654.181,846.7
654.313,847.05
654.445,846.85
654.576,845.45
654.708,845.9
654.839,845.8
654.971,845.55
655.102,845.9
655.234,845.3
655.365,846.15
655.497,844.55
655.628,845.45
655.76,844.95
655.892,845.5
656.023,846.0
656.155,845.0
656.286,843.75
656.418,845.7
656.549,843.9
656.681,844.25
656.812,845.6
656.944,844.5
657.075,845.4
657.207,844.5
657.338,844.45
657.47,843.75
657.601,844.6
657.733,844.8
657.864,843.55
657.996,844.1
658.127,845.25
658.259,844.65
658.39,844.35
658.522,844.9
658.653,844.9
658.785,844.25
658.916,843.45
659.048,844.4
659.179,845.25
659.311,843.95
659.442,842.65
659.574,844.25
659.705,842.95
659.836,844.5
659.968,843.3
660.099,844.8
660.231,843.4
660.362,844.4
660.494,845.1
660.625,844.45
660.757,842.9
660.888,844.25
661.02,844.0
661.151,842.55
661.283,842.95
661.414,842.4
661.545,844.25
661.677,843.3
661.808,842.9
661.94,842.75
662.071,843.85
662.203,843.05
662.334,841.3
662.466,843.6
662.597,842.85
662.728,843.15
662.86,841.95
662.991,843.25
663.123,842.5
