nm,Intensity
526.549,831.15
526.686,832.8
526.823,831.9
526.959,831.7
527.096,831.1
527.233,831.65
527.37,831.35
527.506,832.35
527.643,831.35
527.78,831.25
527.917,831.95
528.053,832.6
528.19,832.15
528.327,831.5
528.463,831.65
528.6,831.95
528.737,829.85
528.873,832.15
529.01,832.3
529.147,831.55
529.283,832.05
529.42,831.75
529.556,832.55
529.693,831.35
529.83,832.0
529.966,831.65
530.103,831.2
530.239,832.7
530.376,832.65
530.512,832.0
530.649,831.8
530.785,831.3
530.922,831.4
531.058,832.25
531.195,831.8
531.331,831.85
531.468,832.0
531.604,832.0
531.741,831.95
531.877,832.55
532.014,842.45
532.15,879.95
532.287,870.15
532.423,838.35
532.559,831.35
532.696,831.65
532.832,832.65
532.968,832.35
533.105,831.65
533.241,831.6
533.378,832.1
533.514,835.2
533.65,861.65
533.787,1060.6
533.923,1787.75
534.059,2622.1
534.196,2863.35
534.332,2782.2
534.468,2630.55
534.604,2499.05
534.741,2361.8
534.877,2186.35
535.013,1988.2
535.149,1822.4
535.286,1677.6
535.422,1567.0
535.558,1465.95
535.694,1381.2
535.83,1310.15
535.967,1256.4
536.103,1217.6
536.239,1188.3
536.375,1157.0
536.511,1144.5
536.647,1132.65
536.784,1123.55
536.92,1118.9
537.056,1106.9
537.192,1102.8
537.328,1096.55
537.464,1089.85
537.6,1078.4
537.736,1082.3
537.872,1080.5
538.008,1090.45
538.145,1100.6
538.281,1108.9
538.417,1115.45
538.553,1114.2
538.689,1108.1
538.825,1082.95
538.961,1055.55
539.097,1031.2
539.233,1004.35
539.369,992.0
539.505,981.95
539.641,983.45
539.777,978.75
539.912,976.8
540.048,970.4
540.184,970.35
540.32,965.7
540.456,964.65
540.592,962.8
540.728,957.0
540.864,955.15
541.0,953.35
541.136,955.8
541.271,954.55
541.407,954.25
541.543,951.85
541.679,954.8
541.815,953.55
541.951,948.6
542.087,951.9
542.222,946.05
542.358,943.7
542.494,944.15
542.63,944.55
542.765,943.45
542.901,946.95
543.037,947.55
543.173,947.9
543.308,951.35
543.444,952.6
543.58,950.95
543.716,955.7
543.851,962.95
543.987,960.3
544.123,956.6
544.258,951.15
544.394,947.5
544.53,941.45
544.665,940.0
544.801,935.4
544.937,933.65
545.072,935.65
545.208,930.6
545.344,926.15
545.479,927.75
545.615,923.5
545.75,918.5
545.886,924.6
546.022,918.3
546.157,918.2
546.293,919.4
546.428,917.55
546.564,918.3
546.699,916.6
546.835,916.8
546.971,914.95
547.106,915.8
547.242,913.95
547.377,918.45
547.513,914.5
547.648,918.25
547.784,918.55
547.919,922.3
548.054,924.5
548.19,918.65
548.325,919.35
548.461,917.9
548.596,913.55
548.732,914.5
548.867,913.3
549.003,912.05
549.138,910.4
549.273,910.65
549.409,909.2
549.544,905.15
549.679,905.2
549.815,906.75
549.95,908.7
550.086,917.0
550.221,954.05
550.356,1021.55
550.492,985.35
550.627,932.1
550.762,909.7
550.898,901.85
551.033,901.85
551.168,895.6
551.303,897.05
551.439,893.45
551.574,894.2
551.709,894.0
551.844,894.5
551.98,893.0
552.115,892.65
552.25,890.9
552.385,891.65
552.521,891.4
552.656,894.45
552.791,895.45
552.926,896.9
553.061,889.55
553.197,889.95
553.332,889.35
553.467,892.05
553.602,892.05
553.737,898.15
553.872,907.55
554.007,915.2
554.143,920.75
554.278,925.35
554.413,935.05
554.548,937.65
554.683,942.35
554.818,937.15
554.953,931.4
555.088,926.15
555.223,927.9
555.358,938.45
555.493,960.85
555.629,984.7
555.764,988.65
555.899,971.4
556.034,942.7
556.169,925.25
556.304,916.0
556.439,904.65
556.574,894.25
556.709,894.75
556.844,900.65
556.979,909.0
557.114,915.1
557.248,913.5
557.383,903.75
557.518,901.6
557.653,899.35
557.788,899.65
557.923,896.8
558.058,897.9
558.193,899.1
558.328,895.85
558.463,895.4
558.598,895.2
558.733,897.7
558.867,899.55
559.002,907.7
559.137,911.0
559.272,908.5
559.407,898.55
559.542,893.25
559.677,891.3
559.811,890.45
559.946,889.65
560.081,892.65
560.216,892.8
560.351,892.25
560.485,893.3
560.62,891.15
560.755,895.75
560.89,896.85
561.024,900.6
561.159,902.7
561.294,903.05
561.429,912.75
561.563,931.65
561.698,966.3
561.833,1026.15
561.968,1257.35
562.102,1846.25
562.237,1802.0
562.372,1197.55
562.506,969.45
562.641,933.4
562.776,949.8
562.91,1037.8
563.045,1158.15
563.18,1162.45
563.314,1051.2
563.449,967.05
563.584,937.05
563.718,926.85
563.853,924.9
563.987,925.9
564.122,929.0
564.257,933.85
564.391,935.0
564.526,934.25
564.66,931.15
564.795,930.3
564.93,927.3
565.064,927.25
565.199,929.55
565.333,924.0
565.468,914.5
565.602,908.05
565.737,905.2
565.871,899.1
566.006,897.0
566.14,894.15
566.275,893.85
566.409,900.4
566.544,904.15
566.678,913.45
566.813,939.2
566.947,981.65
567.082,1004.0
567.216,978.4
567.351,951.05
567.485,941.55
567.619,951.8
567.754,994.1
567.888,1043.55
568.023,1049.25
568.157,1043.75
568.291,1063.5
568.426,1074.2
568.56,1071.75
568.695,1038.7
568.829,1000.75
568.963,969.4
569.098,952.3
569.232,944.0
569.366,939.65
569.501,931.05
569.635,923.85
569.769,925.6
569.904,923.3
570.038,921.75
570.172,921.65
570.307,921.55
570.441,919.15
570.575,920.4
570.709,920.4
570.844,920.5
570.978,920.85
571.112,922.8
571.247,920.6
571.381,927.5
571.515,930.95
571.649,934.0
571.783,941.75
571.918,943.2
572.052,943.85
572.186,946.0
572.32,952.7
572.455,962.05
572.589,965.95
572.723,966.0
572.857,962.45
572.991,953.9
573.125,946.25
573.26,941.85
573.394,940.65
573.528,936.65
573.662,937.6
573.796,938.95
573.93,941.6
574.064,937.95
574.199,940.2
574.333,934.15
574.467,929.35
574.601,924.45
574.735,919.9
574.869,918.35
575.003,919.8
575.137,919.55
575.271,920.45
575.405,919.15
575.539,920.3
575.673,916.95
575.807,918.5
575.941,921.7
576.075,928.95
576.209,939.25
576.344,952.1
576.478,966.8
576.612,983.0
576.746,989.25
576.88,972.65
577.014,943.85
577.147,926.1
577.281,926.3
577.415,924.7
577.549,922.3
577.683,921.85
577.817,922.45
577.951,923.6
578.085,924.1
578.219,924.9
578.353,922.55
578.487,923.7
578.621,921.25
578.755,921.75
578.889,922.1
579.023,920.8
579.156,919.2
579.29,923.3
579.424,923.5
579.558,921.85
579.692,923.8
579.826,922.45
579.96,922.65
580.094,920.25
580.227,924.05
580.361,922.6
580.495,928.85
580.629,931.55
580.763,936.95
580.897,948.1
581.03,990.55
581.164,1028.15
581.298,1002.0
581.432,985.0
581.565,1026.0
581.699,1137.65
581.833,1211.7
581.967,1111.05
582.101,1001.7
582.234,954.65
582.368,939.2
582.502,933.55
582.636,929.15
582.769,926.2
582.903,923.2
583.037,921.95
583.17,922.6
583.304,922.5
583.438,920.55
583.572,918.05
583.705,918.7
583.839,917.25
583.973,921.15
584.106,918.8
584.24,918.6
584.374,918.0
584.507,918.6
584.641,918.65
584.775,918.95
584.908,915.4
585.042,915.7
585.175,915.9
585.309,915.1
585.443,913.95
585.576,912.65
585.71,910.9
585.844,912.85
585.977,913.45
586.111,915.45
586.244,912.0
586.378,913.4
586.511,913.05
586.645,914.6
586.779,911.3
586.912,912.4
587.046,911.75
587.179,911.2
587.313,912.65
587.446,911.55
587.58,908.9
587.713,910.25
587.847,908.35
587.98,907.65
588.114,907.95
588.247,910.05
588.381,910.6
588.514,906.75
588.648,909.85
588.781,908.05
588.915,905.8
589.048,906.05
589.182,908.85
589.315,908.5
589.449,906.75
589.582,903.5
589.716,903.7
589.849,903.4
589.982,904.85
590.116,901.6
590.249,902.25
590.383,902.8
590.516,905.15
590.65,904.9
590.783,902.55
590.916,902.7
591.05,901.4
591.183,902.45
591.316,900.0
591.45,903.55
591.583,902.1
591.717,900.65
591.85,898.55
591.983,899.7
592.117,900.65
592.25,901.25
592.383,899.1
592.517,899.95
592.65,899.05
592.783,899.4
592.917,900.2
593.05,899.5
593.183,898.15
593.316,898.2
593.45,897.95
593.583,896.35
593.716,900.25
593.85,898.45
593.983,898.75
594.116,899.05
594.249,895.85
594.383,895.6
594.516,896.55
594.649,895.5
594.782,893.95
594.916,897.45
595.049,894.55
595.182,894.65
595.315,895.0
595.449,897.25
595.582,893.75
595.715,895.6
595.848,894.25
595.981,893.45
596.115,892.6
596.248,894.5
596.381,894.45
596.514,894.1
596.647,892.65
596.78,895.55
596.914,894.7
597.047,891.9
597.18,892.3
597.313,892.25
597.446,893.2
597.579,891.8
597.712,893.4
597.846,893.35
597.979,892.3
598.112,893.35
598.245,892.5
598.378,893.55
598.511,891.7
598.644,891.95
598.777,891.3
598.91,895.2
599.043,891.2
599.177,890.9
599.31,891.95
599.443,890.6
599.576,894.1
599.709,890.3
599.842,892.15
599.975,892.25
600.108,891.05
600.241,891.75
600.374,892.6
600.507,890.55
600.64,890.35
600.773,891.65
600.906,891.65
601.039,889.95
601.172,892.25
601.305,890.65
601.438,892.4
601.571,891.0
601.704,891.05
601.837,889.3
601.97,888.7
602.103,892.3
602.236,892.55
602.369,892.25
602.502,888.6
602.635,891.3
602.768,892.4
602.901,891.85
603.034,891.75
603.166,890.25
603.299,891.15
603.432,890.25
603.565,888.7
603.698,891.55
603.831,891.2
603.964,891.1
604.097,890.7
604.23,891.7
604.363,889.95
604.496,891.25
604.628,890.3
604.761,890.45
604.894,890.05
605.027,891.15
605.16,891.35
605.293,891.15
605.426,887.6
605.558,890.05
605.691,890.7
605.824,889.3
605.957,888.2
606.09,890.45
606.223,890.05
606.355,888.35
606.488,889.95
606.621,890.45
606.754,891.7
606.887,891.15
607.019,889.65
607.152,889.85
607.285,892.6
607.418,891.3
607.551,893.2
607.683,892.55
607.816,894.55
607.949,892.5
608.082,892.05
608.214,894.05
608.347,891.5
608.48,893.7
608.613,892.25
608.745,893.8
608.878,893.8
609.011,892.2
609.143,893.35
609.276,892.0
609.409,893.7
609.542,892.6
609.674,895.05
609.807,895.8
609.94,891.55
610.072,892.9
610.205,892.9
610.338,894.95
610.47,893.4
610.603,894.65
610.736,894.95
610.868,894.3
611.001,896.15
611.134,895.85
611.266,896.85
611.399,896.0
611.532,896.65
611.664,896.7
611.797,898.55
611.93,898.25
612.062,896.55
612.195,898.85
612.327,897.25
612.46,898.7
612.593,901.2
612.725,897.55
612.858,900.35
612.99,900.45
613.123,903.9
613.256,901.35
613.388,901.7
613.521,900.1
613.653,901.6
613.786,901.7
613.919,901.4
614.051,899.85
614.184,901.55
614.316,899.0
614.449,900.45
614.581,903.45
614.714,905.25
614.846,903.4
614.979,901.2
615.111,904.05
615.244,902.7
615.376,900.8
615.509,902.05
615.641,902.05
615.774,903.55
615.906,905.05
616.039,907.25
616.171,907.35
616.304,908.3
616.436,908.95
616.569,908.3
616.701,908.0
616.834,909.5
616.966,909.9
617.099,908.15
617.231,912.55
617.364,912.05
617.496,909.55
617.629,911.2
617.761,917.15
617.894,914.35
618.026,912.65
618.158,914.7
618.291,914.35
618.423,915.15
618.556,912.35
618.688,910.7
618.82,912.15
618.953,911.1
619.085,912.4
619.218,911.1
619.35,909.1
619.482,915.15
619.615,913.5
619.747,915.8
619.88,911.15
620.012,914.45
620.144,912.75
620.277,914.1
620.409,911.7
620.541,911.3
620.674,911.35
620.806,912.5
620.939,914.25
621.071,913.4
621.203,913.2
621.336,912.15
621.468,913.4
621.6,913.05
621.733,913.35
621.865,913.35
621.997,914.7
622.13,916.7
622.262,913.45
622.394,914.85
622.526,916.6
622.659,915.35
622.791,916.4
622.923,917.2
623.056,915.0
623.188,913.65
623.32,914.05
623.452,915.1
623.585,916.65
623.717,914.2
623.849,917.55
623.981,914.15
624.114,915.6
624.246,917.55
624.378,917.25
624.511,923.6
624.643,922.2
624.775,920.25
624.907,919.95
625.039,917.75
625.172,917.8
625.304,919.75
625.436,920.9
625.568,917.55
625.701,920.0
625.833,922.05
625.965,920.7
626.097,922.65
626.229,920.1
626.362,926.25
626.494,925.6
626.626,932.75
626.758,940.6
626.89,960.15
627.022,981.25
627.155,1010.1
627.287,1038.05
627.419,1047.1
627.551,1040.95
627.683,1023.95
627.815,1014.55
627.948,1003.4
628.08,996.0
628.212,994.95
628.344,1007.2
628.476,1015.3
628.608,1032.1
628.74,1052.4
628.873,1074.5
629.005,1097.0
629.137,1122.65
629.269,1141.45
629.401,1152.75
629.533,1158.8
629.665,1154.8
629.797,1145.05
629.929,1133.3
630.061,1120.05
630.194,1100.1
630.326,1086.6
630.458,1077.15
630.59,1057.85
630.722,1047.3
630.854,1033.95
630.986,1020.35
631.118,1005.15
631.25,989.8
631.382,981.55
631.514,974.9
631.646,971.75
631.778,968.45
631.91,964.55
632.042,967.35
632.175,974.95
632.307,992.7
632.439,999.0
632.571,979.95
632.703,963.25
632.835,956.1
632.967,956.65
633.099,966.0
633.231,985.6
633.363,996.5
633.495,990.7
633.627,972.0
633.759,961.55
633.891,965.45
634.023,973.3
634.155,992.65
634.287,1033.45
634.419,1075.75
634.551,1115.3
634.683,1160.1
634.815,1196.2
634.947,1203.45
635.079,1242.2
635.21,1363.2
635.342,1501.1
635.474,1545.85
635.606,1539.15
635.738,1513.4
635.87,1441.35
636.002,1328.05
636.134,1226.85
636.266,1134.3
636.398,1068.85
636.53,1040.2
636.662,1015.5
636.794,996.75
636.926,981.45
637.058,968.0
637.19,963.35
637.321,959.1
637.453,955.95
637.585,954.1
637.717,950.7
637.849,947.5
637.981,940.7
638.113,941.55
638.245,935.7
638.377,935.2
638.509,936.3
638.64,934.25
638.772,931.6
638.904,933.75
639.036,934.35
639.168,935.3
639.3,930.75
639.432,936.95
639.563,936.55
639.695,939.9
639.827,947.5
639.959,950.95
640.091,944.2
640.223,938.9
640.355,933.05
640.486,931.25
640.618,931.95
640.75,931.35
640.882,933.3
641.014,932.35
641.146,938.2
641.277,940.65
641.409,944.2
641.541,948.25
641.673,943.9
641.805,937.3
641.936,933.1
642.068,932.1
642.2,930.65
642.332,927.2
642.464,927.1
642.595,926.7
642.727,926.15
642.859,927.35
642.991,928.6
643.123,926.65
643.254,926.4
643.386,925.25
643.518,924.7
643.65,924.05
643.781,924.6
643.913,925.15
644.045,925.05
644.177,923.45
644.309,924.35
644.44,924.1
644.572,922.6
644.704,923.95
644.836,923.25
644.967,925.3
645.099,924.2
645.231,924.2
645.362,923.4
645.494,924.15
645.626,926.6
645.758,927.8
645.889,922.95
646.021,923.55
646.153,922.95
646.285,926.25
646.416,926.1
646.548,923.25
646.68,925.85
646.811,926.05
646.943,925.9
647.075,925.85
647.206,923.8
647.338,921.95
647.47,926.9
647.602,924.3
647.733,928.95
647.865,927.3
647.997,925.55
648.128,927.65
648.26,925.3
648.392,928.3
648.523,926.25
648.655,925.45
648.787,927.55
648.918,926.6
649.05,924.25
649.182,925.2
649.313,925.8
649.445,925.75
649.577,926.0
649.708,922.15
649.84,926.1
649.972,926.25
650.103,928.05
650.235,929.05
650.366,928.1
650.498,922.7
650.63,927.35
650.761,928.35
650.893,922.85
651.025,923.05
651.156,925.9
651.288,926.4
651.419,922.0
651.551,927.75
651.683,927.95
651.814,927.0
651.946,927.15
652.077,925.45
652.209,925.3
652.341,927.3
652.472,928.95
652.604,927.05
652.735,928.8
652.867,929.9
652.999,926.05
653.13,927.85
653.262,924.95
653.393,926.3
653.525,928.95
653.657,924.8
653.788,925.95
653.92,928.8
654.051,928.5
654.183,925.7
654.314,924.9
654.446,925.75
654.578,928.2
654.709,926.45
654.841,929.55
654.972,929.3
655.104,929.4
655.235,924.2
655.367,926.8
655.498,926.3
655.63,925.85
655.762,923.3
655.893,926.8
656.025,928.35
656.156,924.6
656.288,924.35
656.419,927.05
656.551,923.05
656.682,926.65
656.814,927.9
656.945,929.05
657.077,928.65
657.208,926.8
657.34,925.25
657.471,926.2
657.603,926.75
657.734,929.3
657.866,928.45
657.997,925.55
658.129,925.95
658.26,927.25
658.392,927.2
658.523,929.0
658.655,927.5
658.786,927.3
658.918,931.0
659.049,925.75
659.181,927.45
659.312,924.9
659.444,928.15
659.575,925.65
659.707,927.4
659.838,927.05
659.97,929.65
660.101,929.65
660.233,926.6
660.364,927.95
660.496,926.4
660.627,926.95
660.759,928.1
660.89,928.3
661.022,927.75
661.153,926.4
661.285,926.65
661.416,927.15
661.547,926.25
661.679,927.15
661.81,928.6
661.942,927.3
662.073,927.2
662.205,926.5
662.336,929.0
662.468,925.4
662.599,928.85
662.731,927.65
662.862,925.9
662.993,926.25
663.125,925.25
