nm,Intensity
526.549,831.92
526.686,832.04
526.823,831.86
526.959,831.7
527.096,831.72
527.233,832.16
527.37,831.58
527.506,832.04
527.643,831.54
527.78,831.88
527.917,831.32
528.053,831.62
528.19,831.52
528.327,831.96
528.463,831.22
528.6,831.62
528.737,831.78
528.873,831.06
529.01,832.26
529.147,831.42
529.283,831.92
529.42,831.82
529.556,832.06
529.693,831.16
529.83,831.82
529.966,831.72
530.103,831.76
530.239,831.12
530.376,831.78
530.512,831.66
530.649,831.46
530.785,831.04
530.922,830.98
531.058,831.54
531.195,831.8
531.331,831.36
531.468,831.32
531.604,831.6
531.741,832.26
531.877,832.02
532.014,834.86
532.15,847.18
532.287,844.86
532.423,832.56
532.559,831.76
532.696,831.54
532.832,831.66
532.968,831.9
533.105,831.16
533.241,832.06
533.378,831.36
533.514,831.66
533.65,832.18
533.787,835.16
533.923,845.28
534.059,858.38
534.196,862.52
534.332,862.36
534.468,860.0
534.604,858.86
534.741,860.16
534.877,859.16
535.013,856.5
535.149,855.56
535.286,854.06
535.422,853.58
535.558,852.28
535.694,851.3
535.83,851.84
535.967,851.48
536.103,851.12
536.239,851.3
536.375,851.9
536.511,850.84
536.647,850.78
536.784,850.22
536.92,850.3
537.056,850.82
537.192,851.66
537.328,851.04
537.464,850.9
537.6,850.24
537.736,850.86
537.872,851.38
538.008,851.6
538.145,852.22
538.281,852.66
538.417,852.38
538.553,853.02
538.689,853.5
538.825,852.7
538.961,854.04
539.097,852.16
539.233,852.84
539.369,853.42
539.505,852.74
539.641,853.3
539.777,852.1
539.912,850.56
540.048,850.86
540.184,849.5
540.32,849.7
540.456,850.96
540.592,849.3
540.728,849.5
540.864,849.08
541.0,848.18
541.136,850.44
541.271,850.0
541.407,848.52
541.543,849.76
541.679,850.4
541.815,849.56
541.951,849.2
542.087,849.7
542.222,850.9
542.358,849.6
542.494,849.6
542.63,850.32
542.765,849.88
542.901,849.86
543.037,850.74
543.173,850.14
543.308,850.82
543.444,849.88
543.58,850.6
543.716,850.3
543.851,851.32
543.987,851.2
544.123,852.4
544.258,852.96
544.394,854.48
544.53,855.62
544.665,856.34
544.801,858.16
544.937,858.26
545.072,859.92
545.208,859.22
545.344,859.48
545.479,856.16
545.615,854.8
545.75,854.36
545.886,853.44
546.022,852.06
546.157,850.38
546.293,850.6
546.428,850.2
546.564,849.66
546.699,849.64
546.835,850.18
546.971,850.94
547.106,850.04
547.242,849.48
547.377,849.22
547.513,849.66
547.648,849.66
547.784,850.46
547.919,849.36
548.054,850.18
548.19,850.78
548.325,850.0
548.461,850.06
548.596,850.26
548.732,851.32
548.867,851.98
549.003,852.4
549.138,853.36
549.273,854.98
549.409,856.12
549.544,859.4
549.679,858.58
549.815,859.58
549.95,858.76
550.086,859.36
550.221,858.38
550.356,856.68
550.492,855.04
550.627,853.7
550.762,853.0
550.898,853.1
551.033,851.56
551.168,852.78
551.303,851.9
551.439,851.52
551.574,849.92
551.709,849.66
551.844,850.28
551.98,850.9
552.115,855.7
552.25,862.36
552.385,862.68
552.521,858.66
552.656,855.04
552.791,852.5
552.926,852.46
553.061,851.82
553.197,850.28
553.332,850.02
553.467,849.14
553.602,850.06
553.737,850.06
553.872,849.62
554.007,850.96
554.143,851.3
554.278,851.66
554.413,849.38
554.548,848.7
554.683,849.44
554.818,848.54
554.953,849.1
555.088,849.58
555.223,849.48
555.358,849.14
555.493,849.78
555.629,848.94
555.764,849.68
555.899,849.06
556.034,849.32
556.169,849.52
556.304,849.94
556.439,850.6
556.574,850.38
556.709,850.94
556.844,851.86
556.979,851.44
557.114,851.36
557.248,851.16
557.383,852.86
557.518,852.14
557.653,850.64
557.788,851.22
557.923,849.58
558.058,851.54
558.193,851.52
558.328,850.84
558.463,850.6
558.598,850.02
558.733,850.7
558.867,850.28
559.002,849.6
559.137,849.46
559.272,849.88
559.407,849.38
559.542,848.86
559.677,849.56
559.811,849.1
559.946,850.02
560.081,849.4
560.216,849.42
560.351,849.24
560.485,849.78
560.62,851.3
560.755,851.0
560.89,849.22
561.024,849.32
561.159,849.02
561.294,850.34
561.429,851.06
561.563,849.88
561.698,849.28
561.833,849.86
561.968,849.48
562.102,849.78
562.237,849.06
562.372,850.1
562.506,849.02
562.641,852.18
562.776,850.42
562.91,850.24
563.045,851.38
563.18,852.0
563.314,851.74
563.449,853.42
563.584,852.02
563.718,853.44
563.853,857.26
563.987,866.44
564.122,871.48
564.257,863.44
564.391,857.1
564.526,857.7
564.66,858.7
564.795,858.14
564.93,856.1
565.064,854.66
565.199,854.08
565.333,853.0
565.468,852.66
565.602,852.9
565.737,854.36
565.871,855.06
566.006,862.24
566.14,869.74
566.275,868.66
566.409,860.96
566.544,855.86
566.678,857.04
566.813,855.78
566.947,852.38
567.082,852.36
567.216,852.56
567.351,853.42
567.485,855.18
567.619,853.7
567.754,852.38
567.888,853.5
568.023,854.66
568.157,854.64
568.291,854.02
568.426,854.36
568.56,855.12
568.695,854.46
568.829,854.4
568.963,853.28
569.098,854.38
569.232,853.04
569.366,852.06
569.501,851.22
569.635,851.74
569.769,852.18
569.904,851.76
570.038,852.0
570.172,852.78
570.307,852.56
570.441,852.88
570.575,854.02
570.709,855.24
570.844,856.7
570.978,859.56
571.112,864.56
571.247,867.92
571.381,871.82
571.515,886.22
571.649,892.2
571.783,878.32
571.918,871.86
572.052,867.6
572.186,861.62
572.32,860.86
572.455,860.36
572.589,859.68
572.723,858.62
572.857,862.76
572.991,867.84
573.125,872.66
573.26,863.18
573.394,856.7
573.528,856.86
573.662,856.4
573.796,855.8
573.93,855.72
574.064,857.04
574.199,855.96
574.333,855.24
574.467,855.52
574.601,859.12
574.735,863.5
574.869,859.16
575.003,853.9
575.137,853.7
575.271,855.42
575.405,857.2
575.539,863.86
575.673,866.92
575.807,865.34
575.941,865.88
576.075,870.68
576.209,879.34
576.344,885.96
576.478,884.58
576.612,883.86
576.746,884.66
576.88,879.08
577.014,875.42
577.147,871.52
577.281,870.6
577.415,866.06
577.549,864.1
577.683,863.72
577.817,864.2
577.951,860.52
578.085,859.2
578.219,861.06
578.353,865.76
578.487,875.98
578.621,879.98
578.755,869.86
578.889,862.64
579.023,864.68
579.156,872.72
579.29,888.04
579.424,890.52
579.558,888.44
579.692,887.92
579.826,877.66
579.96,867.44
580.094,864.56
580.227,862.8
580.361,863.58
580.495,863.12
580.629,861.96
580.763,860.06
580.897,858.26
581.03,856.98
581.164,856.76
581.298,856.7
581.432,857.88
581.565,857.94
581.699,856.88
581.833,857.06
581.967,856.7
582.101,857.58
582.234,856.58
582.368,856.24
582.502,857.14
582.636,856.14
582.769,855.88
582.903,855.66
583.037,856.7
583.17,856.66
583.304,855.5
583.438,857.34
583.572,857.16
583.705,856.14
583.839,855.92
583.973,856.36
584.106,857.5
584.24,857.28
584.374,857.84
584.507,857.58
584.641,858.0
584.775,856.8
584.908,857.86
585.042,858.64
585.175,858.94
585.309,859.36
585.443,857.24
585.576,859.44
585.71,858.92
585.844,858.94
585.977,858.7
586.111,858.36
586.244,858.92
586.378,859.38
586.511,860.02
586.645,859.08
586.779,859.52
586.912,860.62
587.046,860.16
587.179,860.64
587.313,861.34
587.446,861.46
587.58,861.46
587.713,862.22
587.847,862.04
587.98,862.52
588.114,862.94
588.247,862.28
588.381,862.38
588.514,862.7
588.648,861.64
588.781,864.1
588.915,862.9
589.048,862.22
589.182,863.16
589.315,863.76
589.449,864.0
589.582,864.02
589.716,862.78
589.849,863.46
589.982,863.34
590.116,864.44
590.249,865.48
590.383,863.96
590.516,864.84
590.65,864.64
590.783,865.62
590.916,865.14
591.05,864.3
591.183,864.86
591.316,865.6
591.45,866.02
591.583,866.0
591.717,866.62
591.85,866.14
591.983,865.96
592.117,867.02
592.25,866.16
592.383,865.32
592.517,865.62
592.65,867.22
592.783,867.7
592.917,867.06
593.05,866.88
593.183,867.12
593.316,865.94
593.45,866.68
593.583,867.08
593.716,866.38
593.85,867.98
593.983,866.06
594.116,866.46
594.249,866.98
594.383,866.48
594.516,867.28
594.649,866.9
594.782,868.26
594.916,867.98
595.049,866.8
595.182,868.32
595.315,867.58
595.449,867.14
595.582,867.66
595.715,866.98
595.848,868.14
595.981,867.6
596.115,866.76
596.248,867.34
596.381,867.72
596.514,868.14
596.647,868.52
596.78,869.38
596.914,869.1
597.047,868.42
597.18,869.1
597.313,869.3
597.446,868.72
597.579,869.1
597.712,870.08
597.846,869.46
597.979,869.86
598.112,869.98
598.245,869.68
598.378,870.42
598.511,869.24
598.644,869.4
598.777,870.42
598.91,871.24
599.043,870.04
599.177,870.04
599.31,869.58
599.443,872.2
599.576,867.88
599.709,869.96
599.842,869.56
599.975,870.42
600.108,869.7
600.241,869.44
600.374,869.2
600.507,870.7
600.64,869.04
600.773,870.54
600.906,869.22
601.039,869.3
601.172,868.68
601.305,868.64
601.438,868.74
601.571,868.86
601.704,868.28
601.837,868.98
601.97,870.34
602.103,868.9
602.236,870.86
602.369,870.14
602.502,869.66
602.635,869.78
602.768,869.12
602.901,868.92
603.034,868.84
603.166,869.18
603.299,868.2
603.432,868.5
603.565,868.8
603.698,868.74
603.831,870.12
603.964,869.2
604.097,868.26
604.23,869.52
604.363,869.22
604.496,868.4
604.628,868.56
604.761,867.92
604.894,867.38
605.027,866.42
605.16,866.22
605.293,867.28
605.426,867.46
605.558,867.94
605.691,867.6
605.824,866.94
605.957,866.6
606.09,867.14
606.223,864.92
606.355,865.58
606.488,866.0
606.621,866.32
606.754,864.96
606.887,865.18
607.019,864.78
607.152,864.1
607.285,865.16
607.418,865.4
607.551,864.28
607.683,864.24
607.816,863.52
607.949,864.22
608.082,863.92
608.214,863.52
608.347,864.68
608.48,865.32
608.613,865.88
608.745,864.52
608.878,864.46
609.011,865.4
609.143,865.6
609.276,864.66
609.409,865.0
609.542,864.46
609.674,863.62
609.807,863.64
609.94,864.2
610.072,864.36
610.205,863.5
610.338,863.92
610.47,863.7
610.603,863.66
610.736,864.6
610.868,863.46
611.001,863.06
611.134,864.42
611.266,863.24
611.399,864.22
611.532,863.66
611.664,864.26
611.797,863.76
611.93,862.44
612.062,864.1
612.195,864.0
612.327,862.82
612.46,863.54
612.593,864.26
612.725,862.48
612.858,862.76
612.99,863.1
613.123,863.14
613.256,864.18
613.388,863.1
613.521,863.12
613.653,864.06
613.786,862.74
613.919,861.62
614.051,863.82
614.184,862.3
614.316,862.16
614.449,863.06
614.581,862.36
614.714,862.18
614.846,862.76
614.979,861.94
615.111,862.22
615.244,862.1
615.376,862.9
615.509,862.4
615.641,861.76
615.774,861.14
615.906,861.66
616.039,861.74
616.171,862.24
616.304,860.76
616.436,862.32
616.569,863.38
616.701,863.02
616.834,862.38
616.966,863.9
617.099,862.78
617.231,863.64
617.364,864.66
617.496,863.4
617.629,864.28
617.761,863.32
617.894,863.08
618.026,863.34
618.158,862.34
618.291,863.74
618.423,864.08
618.556,862.62
618.688,863.62
618.82,864.06
618.953,863.14
619.085,864.08
619.218,862.66
619.35,863.7
619.482,863.42
619.615,863.64
619.747,863.82
619.88,863.22
620.012,862.78
620.144,863.58
620.277,863.38
620.409,862.76
620.541,863.96
620.674,862.8
620.806,862.62
620.939,861.9
621.071,862.88
621.203,862.5
621.336,863.1
621.468,864.32
621.6,865.06
621.733,865.84
621.865,866.56
621.997,866.24
622.13,868.88
622.262,868.28
622.394,868.82
622.526,868.14
622.659,868.0
622.791,865.58
622.923,864.8
623.056,865.2
623.188,863.86
623.32,862.72
623.452,862.38
623.585,861.52
623.717,861.26
623.849,862.58
623.981,861.58
624.114,862.36
624.246,860.76
624.378,861.8
624.511,861.36
624.643,860.56
624.775,861.32
624.907,862.58
625.039,862.04
625.172,863.28
625.304,863.0
625.436,861.04
625.568,862.42
625.701,864.94
625.833,862.9
625.965,864.66
626.097,865.56
626.229,867.82
626.362,868.64
626.494,871.26
626.626,877.64
626.758,888.84
626.89,904.54
627.022,933.06
627.155,959.92
627.287,972.12
627.419,965.66
627.551,952.12
627.683,939.58
627.815,929.74
627.948,924.4
628.08,923.38
628.212,928.6
628.344,940.06
628.476,968.24
628.608,995.5
628.74,973.42
628.873,945.9
629.005,938.7
629.137,931.32
629.269,926.72
629.401,924.78
629.533,916.7
629.665,913.26
629.797,910.06
629.929,904.0
630.061,904.12
630.194,904.18
630.326,902.64
630.458,902.34
630.59,900.06
630.722,894.7
630.854,889.48
630.986,884.92
631.118,877.28
631.25,872.82
631.382,870.52
631.514,867.78
631.646,866.78
631.778,865.8
631.91,866.44
632.042,863.8
632.175,861.24
632.307,862.48
632.439,861.7
632.571,860.66
632.703,860.06
632.835,858.96
632.967,859.98
633.099,859.28
633.231,859.24
633.363,859.22
633.495,858.72
633.627,859.16
633.759,858.92
633.891,858.48
634.023,858.14
634.155,857.58
634.287,857.22
634.419,857.34
634.551,858.74
634.683,857.36
634.815,857.04
634.947,857.06
635.079,857.04
635.21,858.32
635.342,857.16
635.474,858.28
635.606,859.4
635.738,858.06
635.87,857.92
636.002,858.36
636.134,859.04
636.266,859.16
636.398,859.1
636.53,858.7
636.662,856.88
636.794,857.66
636.926,855.46
637.058,856.28
637.19,856.18
637.321,857.0
637.453,856.68
637.585,856.4
637.717,855.56
637.849,855.42
637.981,857.14
638.113,855.7
638.245,854.98
638.377,855.6
638.509,854.3
638.64,855.0
638.772,855.54
638.904,854.66
639.036,855.06
639.168,854.86
639.3,855.14
639.432,854.68
639.563,855.12
639.695,855.04
639.827,854.22
639.959,856.28
640.091,854.96
640.223,855.24
640.355,854.82
640.486,855.34
640.618,855.22
640.75,855.16
640.882,854.96
641.014,855.34
641.146,854.72
641.277,853.5
641.409,855.62
641.541,854.74
641.673,854.84
641.805,855.22
641.936,855.9
642.068,855.6
642.2,854.18
642.332,853.7
642.464,854.32
642.595,856.06
642.727,854.04
642.859,854.02
642.991,853.92
643.123,855.16
643.254,853.66
643.386,853.88
643.518,854.0
643.65,855.04
643.781,853.12
643.913,854.04
644.045,853.04
644.177,852.66
644.309,854.52
644.44,854.26
644.572,853.96
644.704,853.26
644.836,853.9
644.967,853.22
645.099,853.6
645.231,853.38
645.362,853.74
645.494,853.6
645.626,853.46
645.758,854.88
645.889,853.26
646.021,854.24
646.153,854.28
646.285,854.8
646.416,853.92
646.548,853.76
646.68,853.32
646.811,855.16
646.943,854.2
647.075,854.34
647.206,853.92
647.338,853.6
647.47,853.72
647.602,853.6
647.733,853.1
647.865,853.44
647.997,852.96
648.128,853.84
648.26,853.3
648.392,853.12
648.523,853.02
648.655,853.14
648.787,853.52
648.918,853.12
649.05,853.52
649.182,853.64
649.313,853.3
649.445,852.72
649.577,854.3
649.708,852.66
649.84,852.78
649.972,852.8
650.103,854.1
650.235,852.66
650.366,852.86
650.498,853.32
650.63,852.56
650.761,853.06
650.893,852.54
651.025,852.7
651.156,852.92
651.288,853.14
651.419,852.76
651.551,852.54
651.683,853.9
651.814,853.28
651.946,852.94
652.077,852.42
652.209,853.3
652.341,852.76
652.472,852.74
652.604,851.88
652.735,852.84
652.867,853.78
652.999,853.14
653.13,852.72
653.262,851.92
653.393,853.28
653.525,853.38
653.657,852.32
653.788,853.28
653.92,852.04
654.051,852.54
654.183,853.18
654.314,852.24
654.446,852.04
654.578,852.38
654.709,852.86
654.841,852.64
654.972,852.24
655.104,853.38
655.235,852.46
655.367,851.38
655.498,852.44
655.63,852.32
655.762,852.7
655.893,853.2
656.025,851.92
656.156,851.98
656.288,851.96
656.419,851.86
656.551,851.24
656.682,852.66
656.814,852.34
656.945,852.76
657.077,852.78
657.208,853.02
657.34,852.58
657.471,852.66
657.603,852.04
657.734,852.14
657.866,852.66
657.997,853.22
658.129,852.6
658.26,852.68
658.392,852.58
658.523,852.36
658.655,852.46
658.786,851.76
658.918,852.76
659.049,852.12
659.181,851.62
659.312,853.2
659.444,852.54
659.575,851.78
659.707,852.5
659.838,851.68
659.97,852.9
660.101,853.16
660.233,852.24
660.364,852.12
660.496,851.46
660.627,851.6
660.759,852.48
660.89,851.14
661.022,850.68
661.153,851.66
661.285,851.98
661.416,851.34
661.547,850.58
661.679,851.48
661.81,851.22
661.942,850.94
662.073,850.56
662.205,852.02
662.336,849.62
662.468,851.0
662.599,851.36
662.731,850.58
662.862,850.6
662.993,850.18
663.125,850.62
