nm,Intensity
526.493,829.25
526.629,830.0
526.766,829.2
526.903,829.6
527.039,830.05
527.176,828.8
527.313,828.85
527.449,828.3
527.586,828.3
527.723,829.35
527.859,828.95
527.996,828.6
528.133,828.85
528.269,829.15
528.406,828.15
528.542,828.35
528.679,827.4
528.816,828.15
528.952,829.65
529.089,828.3
529.225,828.6
529.362,829.4
529.498,828.55
529.635,829.4
529.771,828.7
529.908,829.55
530.044,830.1
530.181,828.45
530.317,828.95
530.454,827.75
530.59,828.15
530.727,828.95
530.863,828.8
531.0,828.1
531.136,827.5
531.273,828.4
531.409,829.2
531.546,828.7
531.682,829.1
531.818,828.1
531.955,831.55
532.091,851.35
532.227,864.75
532.364,838.55
532.5,830.2
532.637,829.05
532.773,829.5
532.909,829.25
533.046,829.35
533.182,829.35
533.318,829.1
533.455,830.2
533.591,829.8
533.727,847.4
533.863,930.85
534.0,1068.45
534.136,1131.7
534.272,1122.25
534.408,1103.4
534.545,1082.45
534.681,1067.3
534.817,1046.65
534.953,1019.25
535.09,998.65
535.226,974.75
535.362,958.05
535.498,948.6
535.634,935.05
535.771,924.75
535.907,913.2
536.043,906.85
536.179,902.2
536.315,895.35
536.451,892.6
536.588,888.15
536.724,887.25
536.86,886.7
536.996,883.95
537.132,881.05
537.268,883.4
537.404,878.9
537.54,883.4
537.676,881.15
537.812,882.7
537.948,885.7
538.084,886.2
538.22,885.3
538.357,887.25
538.493,885.45
538.629,886.1
538.765,881.75
538.901,875.85
539.037,874.1
539.173,869.3
539.309,870.2
539.444,867.35
539.58,863.65
539.716,864.2
539.852,864.1
539.988,864.45
540.124,861.1
540.26,862.85
540.396,860.95
540.532,862.5
540.668,861.6
540.804,861.65
540.94,863.05
541.076,860.7
541.211,862.05
541.347,861.6
541.483,862.4
541.619,860.75
541.755,861.05
541.891,860.25
542.026,858.75
542.162,862.45
542.298,858.95
542.434,859.95
542.57,859.15
542.705,861.95
542.841,863.3
542.977,862.4
543.113,862.4
543.249,862.75
543.384,863.45
543.52,863.0
543.656,862.75
543.791,863.4
543.927,864.8
544.063,863.35
544.199,861.0
544.334,858.35
544.47,861.25
544.606,859.55
544.741,859.35
544.877,859.9
545.013,860.75
545.148,859.45
545.284,858.9
545.42,859.4
545.555,857.55
545.691,858.6
545.827,857.85
545.962,856.9
546.098,858.4
546.233,859.05
546.369,859.8
546.504,858.45
546.64,858.85
546.776,858.5
546.911,860.35
547.047,858.4
547.182,857.5
547.318,858.4
547.453,859.7
547.589,857.15
547.724,859.3
547.86,858.35
547.995,857.7
548.131,859.85
548.266,859.4
548.402,861.35
548.537,858.3
548.673,859.55
548.808,859.45
548.944,856.9
549.079,858.2
549.214,859.05
549.35,859.55
549.485,857.45
549.621,857.45
549.756,858.25
549.892,856.65
550.027,860.05
550.162,863.05
550.298,870.5
550.433,871.35
550.568,864.95
550.704,861.3
550.839,862.05
550.974,860.55
551.11,859.6
551.245,859.5
551.38,860.05
551.516,860.15
551.651,860.7
551.786,860.0
551.922,858.7
552.057,859.05
552.192,859.1
552.327,856.0
552.463,857.75
552.598,857.55
552.733,858.75
552.868,856.75
553.004,856.55
553.139,856.3
553.274,855.0
553.409,856.55
553.544,857.05
553.68,856.6
553.815,857.35
553.95,859.7
554.085,858.5
554.22,861.25
554.356,860.65
554.491,862.65
554.626,862.25
554.761,861.45
554.896,861.35
555.031,860.55
555.166,860.75
555.301,861.3
555.437,863.1
555.572,865.7
555.707,869.5
555.842,867.6
555.977,861.75
556.112,861.15
556.247,859.15
556.382,857.85
556.517,856.55
556.652,857.15
556.787,857.25
556.922,857.45
557.057,859.3
557.192,859.75
557.327,859.8
557.462,859.2
557.597,858.4
557.732,857.4
557.867,856.7
558.002,856.45
558.137,855.85
558.272,858.15
558.407,857.8
558.542,857.75
558.677,857.95
558.812,857.05
558.947,858.2
559.082,859.2
559.217,858.4
559.351,856.5
559.486,856.05
559.621,857.65
559.756,854.95
559.891,855.7
560.026,857.6
560.161,855.0
560.295,857.85
560.43,857.9
560.565,857.0
560.7,857.4
560.835,857.45
560.97,859.25
561.104,858.25
561.239,857.8
561.374,859.5
561.509,862.4
561.644,865.0
561.778,871.75
561.913,887.05
562.048,947.6
562.183,988.9
562.317,917.55
562.452,872.6
562.587,864.6
562.722,861.8
562.856,872.05
562.991,886.8
563.126,893.55
563.26,882.3
563.395,871.45
563.53,865.15
563.665,863.05
563.799,862.0
563.934,863.75
564.069,864.2
564.203,864.95
564.338,863.25
564.472,863.85
564.607,863.15
564.742,863.0
564.876,862.45
565.011,862.8
565.146,862.45
565.28,863.25
565.415,861.95
565.549,862.05
565.684,858.2
565.818,861.5
565.953,858.0
566.088,860.15
566.222,859.15
566.357,859.4
566.491,859.45
566.626,862.45
566.76,863.1
566.895,867.25
567.029,872.65
567.164,872.5
567.298,865.85
567.433,866.2
567.567,864.9
567.702,869.65
567.836,876.0
567.971,878.25
568.105,876.55
568.24,876.85
568.374,881.25
568.509,881.25
568.643,880.0
568.777,874.55
568.912,872.05
569.046,865.4
569.181,865.3
569.315,864.75
569.449,864.95
569.584,865.95
569.718,863.45
569.853,863.45
569.987,866.05
570.121,863.8
570.256,863.2
570.39,866.4
570.524,863.85
570.659,862.25
570.793,863.95
570.927,866.2
571.062,864.2
571.196,864.15
571.33,866.55
571.465,865.5
571.599,867.2
571.733,866.5
571.867,866.15
572.002,867.0
572.136,867.9
572.27,868.45
572.404,869.4
572.539,870.75
572.673,869.35
572.807,868.6
572.941,870.1
573.076,868.75
573.21,866.55
573.344,867.65
573.478,867.35
573.612,868.2
573.747,866.95
573.881,865.55
574.015,869.05
574.149,866.7
574.283,866.6
574.417,865.45
574.552,863.7
574.686,863.35
574.82,865.6
574.954,864.05
575.088,864.1
575.222,864.3
575.356,865.3
575.491,865.25
575.625,863.05
575.759,863.75
575.893,863.9
576.027,865.85
576.161,865.85
576.295,868.35
576.429,870.6
576.563,871.75
576.697,871.0
576.831,871.0
576.965,868.5
577.099,866.65
577.233,865.8
577.367,865.6
577.501,865.45
577.635,864.2
577.769,863.2
577.903,864.8
578.037,864.35
578.171,864.8
578.305,866.5
578.439,863.4
578.573,864.05
578.707,864.05
578.841,862.25
578.975,864.8
579.109,863.6
579.243,865.8
579.377,865.05
579.511,866.05
579.645,863.45
579.779,863.9
579.913,864.7
580.046,866.25
580.18,866.0
580.314,863.35
580.448,866.75
580.582,869.6
580.716,866.3
580.85,867.65
580.984,870.45
581.117,878.6
581.251,877.65
581.385,872.55
581.519,873.9
581.653,886.05
581.787,901.15
581.92,895.35
582.054,879.85
582.188,871.55
582.322,869.9
582.456,866.95
582.589,868.15
582.723,870.75
582.857,869.35
582.991,871.35
583.124,877.45
583.258,876.95
583.392,873.85
583.526,870.55
583.659,868.65
583.793,867.4
583.927,865.9
584.061,865.8
584.194,866.1
584.328,868.0
584.462,864.2
584.595,863.2
584.729,863.85
584.863,865.4
584.997,865.5
585.13,864.95
585.264,864.5
585.398,864.8
585.531,865.35
585.665,864.15
585.798,864.75
585.932,865.8
586.066,864.6
586.199,864.1
586.333,865.8
586.467,865.8
586.6,865.3
586.734,866.25
586.867,864.15
587.001,865.75
587.135,865.15
587.268,865.0
587.402,866.1
587.535,865.05
587.669,864.35
587.802,865.05
587.936,864.95
588.07,867.35
588.203,864.7
588.337,866.0
588.47,866.45
588.604,864.95
588.737,864.3
588.871,864.65
589.004,865.55
589.138,866.3
589.271,865.0
589.405,866.25
589.538,866.65
589.672,866.05
589.805,865.9
589.939,867.45
590.072,863.7
590.206,864.55
590.339,866.05
590.472,864.5
590.606,865.15
590.739,864.9
590.873,865.45
591.006,866.95
591.14,865.1
591.273,864.9
591.406,867.5
591.54,866.2
591.673,863.6
591.807,866.6
591.94,866.1
592.073,865.8
592.207,864.4
592.34,864.3
592.473,866.05
592.607,864.2
592.74,865.15
592.873,863.35
593.007,866.55
593.14,864.6
593.273,866.2
593.407,865.2
593.54,863.35
593.673,865.35
593.807,863.85
593.94,863.5
594.073,865.2
594.207,863.6
594.34,865.65
594.473,864.7
594.606,865.4
594.74,865.3
594.873,865.3
595.006,863.6
595.14,865.95
595.273,865.35
595.406,864.6
595.539,865.0
595.673,865.5
595.806,866.3
595.939,865.15
596.072,865.15
596.205,865.0
596.339,865.85
596.472,866.2
596.605,867.45
596.738,865.95
596.871,865.35
597.005,867.25
597.138,865.6
597.271,866.95
597.404,867.0
597.537,866.15
597.67,865.65
597.804,867.15
597.937,866.65
598.07,865.85
598.203,866.5
598.336,866.4
598.469,865.15
598.602,865.9
598.735,867.15
598.869,868.05
599.002,866.85
599.135,866.35
599.268,867.85
599.401,867.1
599.534,867.55
599.667,869.0
599.8,866.75
599.933,864.85
600.066,865.25
600.199,866.7
600.332,868.75
600.465,867.65
600.598,866.8
600.731,868.05
600.865,867.45
600.998,864.35
601.131,867.6
601.264,868.6
601.397,867.35
601.53,866.05
601.663,868.15
601.796,866.1
601.929,869.1
602.062,866.7
602.195,866.05
602.328,867.6
602.46,866.9
602.593,866.0
602.726,867.45
602.859,868.95
602.992,868.15
603.125,869.05
603.258,865.95
603.391,870.6
603.524,867.5
603.657,866.9
603.79,870.85
603.923,869.7
604.056,868.5
604.189,870.15
604.322,868.15
604.454,866.95
604.587,867.8
604.72,868.45
604.853,867.2
604.986,868.95
605.119,870.1
605.252,870.1
605.385,868.25
605.517,866.95
605.65,868.1
605.783,868.75
605.916,868.25
606.049,867.35
606.182,867.55
606.315,866.65
606.447,868.8
606.58,868.4
606.713,865.3
606.846,869.35
606.979,868.95
607.111,868.1
607.244,868.85
607.377,868.55
607.51,870.05
607.643,866.2
607.775,868.25
607.908,869.35
608.041,869.85
608.174,869.25
608.306,870.0
608.439,866.35
608.572,870.0
608.705,867.55
608.837,869.45
608.97,869.55
609.103,867.35
609.236,869.8
609.368,869.55
609.501,869.6
609.634,867.9
609.766,868.2
609.899,869.05
610.032,869.35
610.164,869.8
610.297,867.6
610.43,867.85
610.563,869.8
610.695,870.45
610.828,868.7
610.961,866.75
611.093,869.75
611.226,869.95
611.359,869.5
611.491,867.2
611.624,868.85
611.756,870.4
611.889,870.15
612.022,869.15
612.154,868.9
612.287,871.75
612.42,869.85
612.552,871.45
612.685,870.95
612.817,870.5
612.95,871.15
613.083,870.6
613.215,870.0
613.348,869.5
613.48,871.6
613.613,873.35
613.745,871.75
613.878,872.45
614.011,871.25
614.143,871.95
614.276,870.9
614.408,873.3
614.541,872.25
614.673,871.85
614.806,871.8
614.938,870.8
615.071,872.45
615.203,871.75
615.336,871.9
615.469,868.65
615.601,871.8
615.734,869.7
615.866,871.65
615.999,873.75
616.131,873.1
616.263,871.3
616.396,872.5
616.528,873.0
616.661,871.75
616.793,874.0
616.926,871.5
617.058,873.9
617.191,873.6
617.323,873.0
617.456,874.1
617.588,872.65
617.721,871.1
617.853,873.0
617.985,875.75
618.118,874.5
618.25,873.7
618.383,873.85
618.515,872.85
618.648,874.2
618.78,875.1
618.912,872.95
619.045,873.75
619.177,872.7
619.31,873.85
619.442,873.2
619.574,873.4
619.707,873.05
619.839,871.35
619.971,872.55
620.104,873.55
620.236,873.15
620.369,875.05
620.501,873.65
620.633,872.2
620.766,871.6
620.898,871.45
621.03,873.9
621.163,871.6
621.295,874.7
621.427,873.1
621.56,873.4
621.692,873.8
621.824,872.3
621.957,872.7
622.089,871.95
622.221,874.9
622.353,874.55
622.486,874.4
622.618,874.25
622.75,873.9
622.883,875.75
623.015,874.15
623.147,874.7
623.279,873.45
623.412,874.9
623.544,873.8
623.676,875.45
623.808,875.55
623.941,875.3
624.073,878.55
624.205,877.6
624.337,874.75
624.47,873.45
624.602,874.95
624.734,876.05
624.866,877.2
624.999,876.65
625.131,875.8
625.263,875.3
625.395,875.4
625.527,873.8
625.66,876.1
625.792,875.4
625.924,877.25
626.056,874.45
626.188,876.7
626.321,877.4
626.453,875.75
626.585,876.45
626.717,876.7
626.849,881.25
626.981,883.25
627.114,886.35
627.246,891.05
627.378,894.8
627.51,894.6
627.642,891.95
627.774,890.4
627.906,887.6
628.039,888.35
628.171,885.4
628.303,887.25
628.435,888.85
628.567,891.6
628.699,893.95
628.831,896.35
628.963,901.05
629.095,903.65
629.228,909.15
629.36,908.65
629.492,911.45
629.624,909.95
629.756,910.15
629.888,906.55
630.02,907.05
630.152,903.95
630.284,904.8
630.416,900.15
630.548,898.6
630.68,899.0
630.813,893.6
630.945,891.1
631.077,891.0
631.209,888.9
631.341,886.5
631.473,886.7
631.605,887.45
631.737,886.0
631.869,884.75
632.001,884.8
632.133,886.35
632.265,888.95
632.397,890.25
632.529,887.4
632.661,886.2
632.793,883.2
632.925,882.6
633.057,884.45
633.189,888.2
633.321,889.2
633.453,889.25
633.585,888.15
633.717,884.05
633.849,883.3
633.981,884.0
634.113,888.5
634.245,892.3
634.377,900.5
634.509,903.8
634.641,910.45
634.773,916.95
634.905,920.75
635.036,925.5
635.168,940.0
635.3,958.75
635.432,972.0
635.564,969.35
635.696,968.1
635.828,960.05
635.96,948.2
636.092,923.8
636.224,915.1
636.356,906.6
636.488,899.4
636.62,895.2
636.751,890.35
636.883,891.15
637.015,887.35
637.147,885.45
637.279,883.95
637.411,884.85
637.543,885.4
637.675,885.65
637.807,885.3
637.938,882.5
638.07,883.15
638.202,883.65
638.334,884.15
638.466,884.1
638.598,884.05
638.73,882.95
638.862,883.45
638.993,882.35
639.125,883.1
639.257,883.6
639.389,883.05
639.521,885.35
639.653,884.95
639.784,885.15
639.916,885.9
640.048,886.1
640.18,886.9
640.312,886.5
640.443,885.4
640.575,884.4
640.707,884.35
640.839,885.8
640.971,884.4
641.103,886.25
641.234,885.4
641.366,886.75
641.498,885.95
641.63,887.15
641.761,886.55
641.893,886.85
642.025,888.1
642.157,885.2
642.289,886.95
642.42,887.85
642.552,890.65
642.684,888.55
642.816,890.1
642.947,892.7
643.079,891.1
643.211,892.9
643.343,890.85
643.474,889.75
643.606,891.7
643.738,890.25
643.87,890.4
644.001,886.45
644.133,889.05
644.265,889.0
644.397,887.45
644.528,888.2
644.66,889.55
644.792,887.15
644.923,891.45
645.055,892.9
645.187,888.75
645.319,891.6
645.45,890.65
645.582,891.0
645.714,891.75
645.845,893.0
645.977,892.6
646.109,893.05
646.24,893.9
646.372,894.55
646.504,897.15
646.635,895.75
646.767,898.2
646.899,897.3
647.03,898.9
647.162,901.6
647.294,902.4
647.425,902.7
647.557,905.75
647.689,903.85
647.82,909.3
647.952,910.75
648.084,911.55
648.215,913.1
648.347,918.05
648.479,919.85
648.61,922.85
648.742,926.0
648.874,932.15
649.005,934.85
649.137,938.3
649.268,943.55
649.4,945.5
649.532,949.9
649.663,956.65
649.795,958.3
649.927,963.65
650.058,968.85
650.19,971.25
650.321,977.15
650.453,984.05
650.585,985.25
650.716,987.2
650.848,985.95
650.979,991.7
651.111,986.95
651.243,986.85
651.374,980.75
651.506,976.95
651.637,973.05
651.769,966.4
651.9,959.55
652.032,951.85
652.164,946.35
652.295,945.6
652.427,938.45
652.558,932.9
652.69,931.35
652.821,927.95
652.953,923.5
653.084,922.95
653.216,922.7
653.348,917.15
653.479,917.1
653.611,914.75
653.742,912.05
653.874,910.05
654.005,910.25
654.137,908.15
654.268,906.7
654.4,904.95
654.531,902.3
654.663,902.2
654.794,902.95
654.926,901.15
655.057,900.6
655.189,897.55
655.32,899.6
655.452,897.45
655.583,895.05
655.715,896.5
655.846,894.9
655.978,893.7
656.109,893.45
656.241,893.25
656.372,891.15
656.504,891.05
656.635,890.5
656.767,891.75
656.898,891.7
657.03,890.6
657.161,891.15
657.293,887.3
657.424,889.55
657.556,888.95
657.687,888.85
657.819,886.75
657.95,886.9
658.082,889.2
658.213,886.75
658.345,886.7
658.476,886.85
658.607,886.45
658.739,886.6
658.87,883.6
659.002,886.45
659.133,886.05
659.265,885.85
659.396,883.4
659.528,884.65
659.659,882.75
659.79,881.9
659.922,882.05
660.053,884.9
660.185,883.7
660.316,885.1
660.448,882.4
660.579,884.85
660.71,880.0
660.842,881.1
660.973,881.45
661.105,881.1
661.236,882.0
661.367,879.0
661.499,881.05
661.63,879.75
661.762,881.45
661.893,880.65
662.024,880.7
662.156,878.8
662.287,879.8
662.419,882.1
662.55,881.6
662.681,880.2
662.813,880.05
662.944,880.2
663.076,880.45
