nm,Intensity
526.553,834.96
526.69,834.94
526.827,835.06
526.963,835.5
527.1,834.76
527.237,835.16
527.373,835.56
527.51,834.52
527.647,835.24
527.784,834.68
527.92,835.32
528.057,835.02
528.194,834.84
528.33,835.46
528.467,835.4
528.603,835.04
528.74,835.34
528.877,835.22
529.013,835.44
529.15,834.88
529.286,835.48
529.423,835.54
529.56,834.12
529.696,834.66
529.833,836.24
529.969,835.08
530.106,835.54
530.242,835.08
530.379,835.2
530.515,835.66
530.652,835.3
530.788,834.8
530.925,834.84
531.061,835.1
531.198,835.06
531.334,835.02
531.47,835.14
531.607,835.6
531.743,835.58
531.88,835.78
532.016,839.4
532.152,851.02
532.289,846.36
532.425,836.36
532.562,835.12
532.698,835.36
532.834,835.28
532.971,834.48
533.107,834.86
533.243,835.1
533.38,834.92
533.516,835.52
533.652,836.36
533.789,846.12
533.925,878.32
534.061,910.56
534.197,922.82
534.334,922.76
534.47,920.96
534.606,918.0
534.742,920.2
534.879,919.88
535.015,919.14
535.151,917.22
535.287,915.36
535.423,914.28
535.56,912.66
535.696,910.06
535.832,910.88
535.968,908.4
536.104,908.66
536.24,907.66
536.376,907.88
536.513,906.44
536.649,906.9
536.785,905.84
536.921,906.48
537.057,905.06
537.193,906.02
537.329,905.6
537.465,905.22
537.601,906.26
537.737,905.82
537.873,905.58
538.009,904.44
538.145,905.02
538.281,906.46
538.417,906.28
538.553,903.32
538.689,904.24
538.825,905.38
538.961,903.1
539.097,904.18
539.233,901.14
539.369,904.02
539.505,902.34
539.641,900.92
539.777,901.4
539.913,900.96
540.049,902.92
540.185,901.36
540.321,900.4
540.457,899.88
540.592,900.08
540.728,900.64
540.864,898.92
541.0,898.88
541.136,901.12
541.272,899.72
541.408,900.04
541.543,899.84
541.679,900.08
541.815,898.76
541.951,899.06
542.087,900.52
542.222,901.08
542.358,899.96
542.494,901.54
542.63,901.72
542.765,900.72
542.901,901.62
543.037,901.66
543.173,902.66
543.308,900.56
543.444,902.64
543.58,901.04
543.715,902.8
543.851,901.28
543.987,902.1
544.123,902.56
544.258,902.8
544.394,903.7
544.529,903.08
544.665,901.56
544.801,904.62
544.936,902.98
545.072,904.16
545.208,904.68
545.343,905.32
545.479,903.82
545.614,903.86
545.75,903.58
545.886,902.88
546.021,904.76
546.157,903.98
546.292,904.34
546.428,903.22
546.563,904.34
546.699,903.96
546.834,904.42
546.97,903.76
547.105,904.7
547.241,904.04
547.376,903.92
547.512,904.62
547.647,904.16
547.783,904.22
547.918,904.36
548.054,903.76
548.189,904.04
548.325,903.38
548.46,902.54
548.595,903.72
548.731,903.9
548.866,904.42
549.002,905.2
549.137,903.46
549.272,902.7
549.408,903.92
549.543,904.5
549.679,905.24
549.814,903.86
549.949,905.46
550.085,904.22
550.22,905.06
550.355,903.64
550.491,901.5
550.626,903.08
550.761,901.24
550.896,901.82
551.032,904.7
551.167,901.92
551.302,902.3
551.438,901.96
551.573,902.4
551.708,902.9
551.843,901.38
551.979,902.06
552.114,903.12
552.249,903.84
552.384,903.92
552.519,902.82
552.655,902.3
552.79,900.66
552.925,900.3
553.06,901.54
553.195,900.46
553.331,901.72
553.466,901.4
553.601,900.88
553.736,900.52
553.871,902.2
554.006,900.54
554.141,901.86
554.276,898.96
554.412,899.76
554.547,899.74
554.682,900.66
554.817,899.96
554.952,901.0
555.087,899.1
555.222,900.62
555.357,898.82
555.492,898.58
555.627,898.6
555.762,899.5
555.897,899.8
556.032,899.12
556.167,899.94
556.302,899.78
556.437,900.68
556.572,901.12
556.707,901.48
556.842,900.26
556.977,898.94
557.112,901.12
557.247,900.84
557.382,901.78
557.517,900.0
557.652,901.42
557.787,901.3
557.922,902.1
558.057,900.8
558.192,900.36
558.327,902.04
558.462,900.94
558.596,900.28
558.731,899.68
558.866,900.78
559.001,900.96
559.136,901.52
559.271,899.92
559.406,900.46
559.54,902.38
559.675,900.94
559.81,901.3
559.945,901.1
560.08,898.38
560.215,899.64
560.349,901.94
560.484,901.0
560.619,899.64
560.754,900.74
560.889,899.46
561.023,898.96
561.158,899.22
561.293,899.74
561.428,899.64
561.562,899.84
561.697,899.2
561.832,898.62
561.966,900.1
562.101,899.46
562.236,900.5
562.371,899.44
562.505,901.14
562.64,901.44
562.775,900.24
562.909,900.64
563.044,903.14
563.179,904.82
563.313,902.84
563.448,903.66
563.583,905.64
563.717,909.1
563.852,919.46
563.986,946.26
564.121,955.54
564.256,930.56
564.39,913.48
564.525,914.12
564.659,914.48
564.794,912.9
564.929,912.78
565.063,909.76
565.198,910.22
565.332,908.8
565.467,909.66
565.601,909.3
565.736,911.68
565.87,915.16
566.005,934.86
566.139,967.46
566.274,973.8
566.408,933.24
566.543,915.04
566.677,909.56
566.812,906.54
566.946,907.3
567.081,907.38
567.215,908.06
567.35,910.5
567.484,914.72
567.619,913.2
567.753,908.42
567.888,907.48
568.022,906.86
568.156,907.3
568.291,905.68
568.425,907.7
568.56,906.18
568.694,906.8
568.828,907.48
568.963,908.08
569.097,906.98
569.231,908.4
569.366,909.36
569.5,910.86
569.635,909.8
569.769,910.9
569.903,911.4
570.038,910.72
570.172,911.34
570.306,911.82
570.441,912.16
570.575,915.5
570.709,916.8
570.843,915.94
570.978,917.26
571.112,918.68
571.246,924.2
571.38,940.06
571.515,997.38
571.649,1004.2
571.783,948.0
571.917,932.44
572.052,927.46
572.186,923.46
572.32,921.72
572.454,920.04
572.589,918.52
572.723,917.88
572.857,918.04
572.991,917.96
573.125,917.42
573.26,917.18
573.394,916.56
573.528,918.8
573.662,919.14
573.796,921.44
573.93,922.48
574.064,923.42
574.199,921.12
574.333,919.88
574.467,919.1
574.601,919.7
574.735,918.42
574.869,918.52
575.003,918.06
575.137,919.56
575.271,921.0
575.406,932.26
575.54,950.74
575.674,949.98
575.808,937.22
575.942,938.66
576.076,953.56
576.21,975.4
576.344,997.68
576.478,981.66
576.612,962.76
576.746,960.3
576.88,958.32
577.014,960.36
577.148,959.46
577.282,953.64
577.416,940.86
577.55,932.8
577.684,929.06
577.818,926.3
577.952,923.0
578.086,924.04
578.22,922.34
578.354,923.8
578.488,924.16
578.622,923.78
578.756,922.88
578.89,919.78
579.023,921.44
579.157,921.12
579.291,920.64
579.425,921.42
579.559,922.48
579.693,925.64
579.827,922.86
579.961,923.06
580.095,922.04
580.228,919.54
580.362,919.48
580.496,919.44
580.63,918.44
580.764,919.1
580.898,918.98
581.032,920.02
581.165,917.72
581.299,917.12
581.433,917.54
581.567,916.68
581.701,918.48
581.834,916.98
581.968,917.46
582.102,916.96
582.236,917.18
582.37,918.52
582.503,917.86
582.637,918.98
582.771,917.2
582.905,916.98
583.038,917.18
583.172,917.34
583.306,916.62
583.44,916.42
583.573,916.76
583.707,915.62
583.841,914.66
583.974,916.12
584.108,914.94
584.242,916.24
584.375,916.22
584.509,914.38
584.643,914.86
584.777,915.02
584.91,911.92
585.044,913.38
585.177,915.62
585.311,914.12
585.445,912.82
585.578,913.84
585.712,912.84
585.846,914.12
585.979,914.1
586.113,913.5
586.247,913.76
586.38,914.28
586.514,913.02
586.647,912.68
586.781,912.06
586.914,912.6
587.048,912.46
587.182,913.78
587.315,912.04
587.449,911.68
587.582,911.38
587.716,910.4
587.849,912.26
587.983,910.18
588.116,910.16
588.25,908.4
588.384,909.22
588.517,910.66
588.651,908.92
588.784,908.66
588.918,907.88
589.051,909.72
589.185,909.54
589.318,908.04
589.452,909.46
589.585,908.48
589.718,907.32
589.852,906.02
589.985,908.6
590.119,907.88
590.252,909.48
590.386,908.44
590.519,908.12
590.653,907.4
590.786,907.24
590.919,907.5
591.053,906.76
591.186,908.3
591.32,905.3
591.453,907.84
591.586,907.08
591.72,907.42
591.853,905.72
591.987,907.2
592.12,905.42
592.253,904.9
592.387,904.36
592.52,904.82
592.653,904.84
592.787,904.18
592.92,905.2
593.053,904.7
593.187,903.42
593.32,901.66
593.453,903.06
593.587,903.2
593.72,903.3
593.853,902.52
593.987,902.42
594.12,904.16
594.253,903.34
594.386,902.86
594.52,901.9
594.653,902.18
594.786,901.96
594.919,900.52
595.053,902.6
595.186,901.06
595.319,902.18
595.452,901.84
595.586,901.64
595.719,902.1
595.852,902.38
595.985,900.6
596.119,901.48
596.252,901.18
596.385,900.04
596.518,901.76
596.651,900.56
596.785,900.06
596.918,900.02
597.051,899.96
597.184,901.1
597.317,898.54
597.45,899.9
597.584,899.16
597.717,899.06
597.85,898.86
597.983,899.86
598.116,899.3
598.249,899.36
598.382,897.98
598.516,898.4
598.649,899.0
598.782,898.68
598.915,898.18
599.048,896.86
599.181,898.7
599.314,898.16
599.447,898.7
599.58,898.74
599.713,898.54
599.847,897.4
599.98,897.8
600.113,896.7
600.246,896.3
600.379,895.94
600.512,896.06
600.645,895.58
600.778,895.8
600.911,895.02
601.044,896.18
601.177,894.44
601.31,895.68
601.443,895.66
601.576,894.4
601.709,895.14
601.842,894.94
601.975,896.28
602.108,895.74
602.241,897.26
602.374,896.96
602.507,896.04
602.64,893.98
602.773,893.74
602.906,893.5
603.039,894.36
603.172,894.32
603.305,893.22
603.438,892.66
603.571,894.08
603.703,894.54
603.836,893.64
603.969,893.8
604.102,892.78
604.235,893.02
604.368,893.22
604.501,892.18
604.634,892.2
604.767,892.34
604.9,891.76
605.033,891.28
605.165,892.7
605.298,890.74
605.431,890.32
605.564,890.4
605.697,889.3
605.83,891.5
605.963,888.48
606.095,890.14
606.228,889.54
606.361,889.1
606.494,889.04
606.627,887.6
606.76,888.58
606.892,887.5
607.025,887.54
607.158,889.66
607.291,888.78
607.424,889.62
607.556,889.2
607.689,888.88
607.822,889.0
607.955,888.76
608.088,888.96
608.22,888.3
608.353,888.64
608.486,888.06
608.619,887.88
608.751,889.5
608.884,888.58
609.017,889.94
609.15,888.56
609.282,887.28
609.415,887.62
609.548,889.22
609.681,889.54
609.813,888.12
609.946,888.48
610.079,888.8
610.211,887.8
610.344,888.42
610.477,886.6
610.609,889.78
610.742,887.86
610.875,889.1
611.007,890.04
611.14,889.2
611.273,889.24
611.405,888.8
611.538,889.28
611.671,887.66
611.803,888.98
611.936,886.88
612.069,887.2
612.201,889.06
612.334,887.52
612.467,888.64
612.599,889.36
612.732,888.24
612.864,889.06
612.997,888.42
613.13,888.82
613.262,889.18
613.395,889.16
613.527,888.58
613.66,890.12
613.793,888.82
613.925,888.54
614.058,888.52
614.19,889.26
614.323,889.26
614.456,888.94
614.588,889.82
614.721,889.62
614.853,888.68
614.986,889.28
615.118,889.62
615.251,889.64
615.383,889.6
615.516,890.3
615.648,888.64
615.781,888.22
615.913,890.56
616.046,889.38
616.178,890.08
616.311,887.62
616.443,890.62
616.576,889.3
616.708,891.32
616.841,890.46
616.973,891.72
617.106,893.02
617.238,894.38
617.371,894.48
617.503,893.88
617.636,892.6
617.768,893.54
617.901,894.96
618.033,893.56
618.166,895.74
618.298,895.52
618.43,893.12
618.563,894.3
618.695,893.3
618.828,893.8
618.96,893.44
619.093,895.32
619.225,894.0
619.357,894.9
619.49,896.48
619.622,895.94
619.755,895.76
619.887,896.02
620.019,894.52
620.152,894.12
620.284,894.64
620.417,895.12
620.549,896.64
620.681,896.4
620.814,896.22
620.946,895.86
621.078,898.72
621.211,897.56
621.343,901.34
621.475,902.28
621.608,905.98
621.74,907.3
621.872,910.86
622.005,913.44
622.137,917.66
622.269,920.7
622.402,918.26
622.534,918.14
622.666,913.2
622.799,908.84
622.931,902.92
623.063,901.88
623.195,899.9
623.328,898.4
623.46,897.76
623.592,896.38
623.725,895.22
623.857,897.72
623.989,895.92
624.121,897.56
624.254,896.92
624.386,897.38
624.518,897.44
624.65,898.02
624.783,896.66
624.915,897.32
625.047,895.64
625.179,898.84
625.312,898.3
625.444,898.42
625.576,900.62
625.708,900.74
625.841,903.32
625.973,905.32
626.105,907.32
626.237,912.92
626.369,919.58
626.502,932.76
626.634,958.6
626.766,1002.3
626.898,1072.82
627.03,1175.92
627.163,1272.02
627.295,1298.16
627.427,1257.12
627.559,1204.12
627.691,1157.1
627.823,1124.94
627.956,1107.1
628.088,1104.28
628.22,1114.58
628.352,1172.6
628.484,1311.28
628.616,1415.3
628.748,1288.26
628.881,1174.02
629.013,1133.36
629.145,1118.7
629.277,1102.1
629.409,1088.84
629.541,1070.16
629.673,1049.52
629.805,1035.76
629.937,1025.32
630.07,1017.34
630.202,1016.6
630.334,1017.18
630.466,1013.0
630.598,1002.04
630.73,988.82
630.862,973.32
630.994,957.1
631.126,939.86
631.258,922.12
631.39,913.6
631.522,910.86
631.655,905.46
631.787,902.42
631.919,901.06
632.051,899.82
632.183,898.54
632.315,897.76
632.447,897.48
632.579,895.84
632.711,894.7
632.843,895.26
632.975,895.22
633.107,892.78
633.239,891.92
633.371,892.6
633.503,891.72
633.635,891.28
633.767,890.72
633.899,888.8
634.031,888.84
634.163,888.22
634.295,888.32
634.427,888.2
634.559,889.24
634.691,887.06
634.823,886.2
634.955,885.52
635.087,885.96
635.219,884.64
635.351,885.56
635.483,885.38
635.615,885.0
635.747,885.48
635.879,885.64
636.011,884.98
636.143,884.36
636.275,884.58
636.406,884.82
636.538,885.14
636.67,883.48
636.802,883.6
636.934,883.62
637.066,882.9
637.198,881.02
637.33,880.98
637.462,880.72
637.594,879.58
637.726,880.7
637.858,880.0
637.989,879.2
638.121,879.72
638.253,880.02
638.385,878.92
638.517,878.58
638.649,879.74
638.781,879.32
638.913,880.14
639.045,878.9
639.176,878.86
639.308,878.5
639.44,878.44
639.572,878.04
639.704,877.84
639.836,879.06
639.968,878.9
640.1,878.6
640.231,878.96
640.363,877.74
640.495,876.82
640.627,876.34
640.759,879.02
640.891,876.88
641.022,877.76
641.154,877.34
641.286,877.7
641.418,876.94
641.55,876.52
641.682,876.16
641.813,877.08
641.945,877.16
642.077,875.86
642.209,875.2
642.341,876.52
642.472,876.9
642.604,875.76
642.736,875.0
642.868,875.74
643.0,875.84
643.131,874.7
643.263,875.22
643.395,875.26
643.527,875.22
643.658,874.32
643.79,875.2
643.922,874.92
644.054,874.82
644.186,875.0
644.317,874.28
644.449,874.6
644.581,874.28
644.713,874.64
644.844,874.0
644.976,873.22
645.108,873.4
645.24,872.98
645.371,872.76
645.503,872.34
645.635,873.9
645.767,873.62
645.898,871.56
646.03,873.64
646.162,873.1
646.293,873.74
646.425,872.78
646.557,873.48
646.689,872.42
646.82,872.34
646.952,871.46
647.084,872.1
647.215,872.34
647.347,872.32
647.479,870.78
647.61,871.52
647.742,872.62
647.874,872.08
648.006,873.3
648.137,871.28
648.269,872.22
648.401,870.86
648.532,872.26
648.664,872.02
648.796,870.4
648.927,871.56
649.059,870.08
649.191,870.52
649.322,871.22
649.454,870.74
649.586,869.62
649.717,870.68
649.849,869.9
649.981,871.0
650.112,870.64
650.244,869.28
650.375,868.88
650.507,869.22
650.639,869.9
650.77,869.86
650.902,869.88
651.034,868.82
651.165,869.08
651.297,869.68
651.429,870.06
651.56,869.38
651.692,868.06
651.823,869.72
651.955,868.94
652.087,869.3
652.218,868.94
652.35,869.34
652.481,869.14
652.613,870.06
652.745,870.06
652.876,869.98
653.008,868.26
653.139,869.42
653.271,868.74
653.403,868.4
653.534,867.96
653.666,868.38
653.797,869.76
653.929,869.06
654.061,868.26
654.192,868.22
654.324,868.64
654.455,868.58
654.587,867.74
654.718,867.64
654.85,868.76
654.982,869.92
655.113,867.3
655.245,867.86
655.376,867.7
655.508,866.54
655.639,867.9
655.771,867.18
655.902,866.58
656.034,867.26
656.166,867.54
656.297,868.28
656.429,866.68
656.56,866.88
656.692,867.16
656.823,867.74
656.955,868.22
657.086,868.26
657.218,868.22
657.349,866.38
657.481,865.82
657.612,867.0
657.744,866.98
657.875,867.28
658.007,866.46
658.138,866.6
658.27,866.56
658.401,866.1
658.533,867.3
658.664,868.08
658.796,865.84
658.927,867.94
659.059,867.08
659.19,867.14
659.322,867.58
659.453,867.92
659.585,868.02
659.716,868.36
659.848,867.3
659.979,867.84
660.111,869.1
660.242,867.8
660.374,867.3
660.505,867.1
660.637,868.14
660.768,866.9
660.9,866.56
661.031,867.22
661.163,865.24
661.294,866.28
661.426,866.54
661.557,866.68
661.689,866.28
661.82,866.16
661.951,865.78
662.083,866.68
662.214,865.42
662.346,865.16
662.477,865.08
662.609,866.1
662.74,866.16
662.872,865.94
663.003,864.38
663.135,865.54
