nm,Intensity
526.549,831.68
526.686,831.74
526.823,832.02
526.959,831.58
527.096,832.0
527.233,831.58
527.37,831.62
527.506,832.08
527.643,831.82
527.78,831.84
527.917,832.06
528.053,831.36
528.19,831.32
528.327,831.58
528.463,831.46
528.6,831.42
528.737,831.9
528.873,831.52
529.01,832.16
529.147,831.78
529.283,831.88
529.42,832.38
529.556,831.52
529.693,831.96
529.83,831.6
529.966,831.46
530.103,832.0
530.239,831.46
530.376,831.52
530.512,831.74
530.649,831.32
530.785,831.2
530.922,831.94
531.058,831.46
531.195,831.36
531.331,831.86
531.468,831.62
531.604,831.54
531.741,831.54
531.877,832.04
532.014,838.86
532.15,867.78
532.287,861.82
532.423,837.04
532.559,831.86
532.696,831.04
532.832,831.34
532.968,831.98
533.105,832.02
533.241,831.52
533.378,831.7
533.514,831.92
533.65,832.34
533.787,839.32
533.923,864.92
534.059,896.98
534.196,909.64
534.332,909.22
534.468,908.22
534.604,909.8
534.741,912.6
534.877,912.82
535.013,911.1
535.149,910.04
535.286,908.74
535.422,909.1
535.558,909.4
535.694,909.18
535.83,909.72
535.967,912.64
536.103,928.06
536.239,941.24
536.375,936.8
536.511,919.28
536.647,910.54
536.784,910.4
536.92,908.44
537.056,908.52
537.192,906.04
537.328,908.48
537.464,908.5
537.6,909.66
537.736,912.02
537.872,911.96
538.008,913.6
538.145,913.1
538.281,913.02
538.417,914.36
538.553,912.94
538.689,915.68
538.825,916.34
538.961,914.6
539.097,917.88
539.233,916.66
539.369,915.58
539.505,915.14
539.641,915.54
539.777,915.2
539.912,913.6
540.048,914.36
540.184,915.38
540.32,914.96
540.456,914.84
540.592,912.98
540.728,912.72
540.864,912.98
541.0,914.88
541.136,913.98
541.271,915.84
541.407,914.8
541.543,915.52
541.679,917.62
541.815,915.18
541.951,916.94
542.087,917.28
542.222,917.5
542.358,917.56
542.494,918.14
542.63,919.16
542.765,918.88
542.901,920.48
543.037,920.32
543.173,921.52
543.308,921.64
543.444,922.96
543.58,923.18
543.716,926.14
543.851,923.72
543.987,924.8
544.123,924.62
544.258,927.96
544.394,927.12
544.53,927.28
544.665,930.58
544.801,933.6
544.937,935.74
545.072,936.96
545.208,939.62
545.344,937.52
545.479,935.44
545.615,933.66
545.75,931.42
545.886,927.88
546.022,926.96
546.157,925.36
546.293,928.3
546.428,926.24
546.564,925.98
546.699,926.8
546.835,926.22
546.971,927.24
547.106,929.02
547.242,929.56
547.377,929.78
547.513,925.92
547.648,930.48
547.784,929.14
547.919,928.44
548.054,928.42
548.19,928.48
548.325,929.56
548.461,929.64
548.596,931.1
548.732,931.82
548.867,932.56
549.003,931.2
549.138,933.04
549.273,933.64
549.409,935.26
549.544,937.96
549.679,939.32
549.815,942.06
549.95,941.62
550.086,942.44
550.221,942.26
550.356,941.76
550.492,939.22
550.627,937.5
550.762,936.54
550.898,937.28
551.033,936.26
551.168,936.28
551.303,933.82
551.439,932.38
551.574,932.8
551.709,932.44
551.844,930.14
551.98,932.06
552.115,932.58
552.25,931.04
552.385,930.14
552.521,929.92
552.656,929.7
552.791,930.14
552.926,930.9
553.061,928.0
553.197,931.1
553.332,930.58
553.467,930.92
553.602,929.8
553.737,930.44
553.872,930.22
554.007,930.3
554.143,930.72
554.278,930.4
554.413,930.68
554.548,927.96
554.683,929.18
554.818,929.78
554.953,928.2
555.088,929.64
555.223,930.24
555.358,929.52
555.493,928.08
555.629,928.58
555.764,929.34
555.899,928.52
556.034,928.7
556.169,928.3
556.304,929.16
556.439,929.22
556.574,929.16
556.709,928.68
556.844,929.56
556.979,930.42
557.114,930.08
557.248,930.0
557.383,929.42
557.518,931.5
557.653,929.8
557.788,930.46
557.923,928.34
558.058,929.58
558.193,930.84
558.328,929.7
558.463,929.56
558.598,928.82
558.733,929.32
558.867,930.08
559.002,927.9
559.137,928.5
559.272,928.22
559.407,930.68
559.542,929.96
559.677,930.12
559.811,931.32
559.946,931.5
560.081,932.02
560.216,931.44
560.351,932.26
560.485,932.06
560.62,933.0
560.755,930.6
560.89,931.04
561.024,929.76
561.159,931.72
561.294,930.08
561.429,932.34
561.563,932.2
561.698,930.54
561.833,931.74
561.968,931.44
562.102,932.28
562.237,934.0
562.372,931.28
562.506,933.22
562.641,933.64
562.776,932.44
562.91,934.92
563.045,935.68
563.18,934.18
563.314,935.16
563.449,936.1
563.584,937.36
563.718,940.34
563.853,947.2
563.987,964.76
564.122,974.84
564.257,956.68
564.391,943.02
564.526,941.72
564.66,941.98
564.795,944.02
564.93,943.56
565.064,941.2
565.199,942.2
565.333,940.7
565.468,940.8
565.602,944.36
565.737,943.48
565.871,947.94
566.006,956.12
566.14,975.28
566.275,984.04
566.409,961.44
566.544,949.08
566.678,945.86
566.813,943.16
566.947,943.3
567.082,944.34
567.216,942.24
567.351,946.5
567.485,951.78
567.619,952.48
567.754,949.52
567.888,945.88
568.023,946.36
568.157,946.52
568.291,947.06
568.426,948.54
568.56,948.2
568.695,947.78
568.829,949.18
568.963,949.78
569.098,951.08
569.232,950.04
569.366,950.56
569.501,952.18
569.635,952.76
569.769,953.7
569.904,953.38
570.038,953.78
570.172,955.1
570.307,954.06
570.441,954.3
570.575,956.0
570.709,957.5
570.844,957.6
570.978,957.5
571.112,959.06
571.247,960.28
571.381,968.62
571.515,1002.26
571.649,1013.36
571.783,978.16
571.918,963.62
572.052,960.58
572.186,961.42
572.32,960.62
572.455,959.9
572.589,959.7
572.723,958.88
572.857,958.38
572.991,959.38
573.125,958.8
573.26,959.32
573.394,958.5
573.528,960.34
573.662,959.3
573.796,962.8
573.93,963.32
574.064,965.42
574.199,962.94
574.333,962.94
574.467,960.0
574.601,962.14
574.735,960.1
574.869,958.92
575.003,960.64
575.137,960.4
575.271,962.54
575.405,968.02
575.539,978.34
575.673,978.08
575.807,973.64
575.941,974.42
576.075,980.54
576.209,998.12
576.344,1020.4
576.478,1012.3
576.612,996.34
576.746,991.0
576.88,989.88
577.014,994.08
577.147,996.06
577.281,990.2
577.415,983.8
577.549,978.06
577.683,972.22
577.817,971.72
577.951,970.26
578.085,966.48
578.219,965.48
578.353,968.54
578.487,967.58
578.621,967.4
578.755,967.68
578.889,968.18
579.023,966.9
579.156,968.02
579.29,967.54
579.424,967.68
579.558,967.04
579.692,968.88
579.826,970.08
579.96,968.88
580.094,970.6
580.227,968.12
580.361,969.76
580.495,968.98
580.629,970.26
580.763,967.62
580.897,968.98
581.03,968.96
581.164,971.14
581.298,968.92
581.432,971.1
581.565,970.48
581.699,969.86
581.833,971.5
581.967,971.92
582.101,971.7
582.234,973.08
582.368,973.22
582.502,973.42
582.636,971.84
582.769,973.84
582.903,972.94
583.037,973.0
583.17,974.76
583.304,975.68
583.438,974.26
583.572,975.4
583.705,977.08
583.839,976.16
583.973,975.94
584.106,975.32
584.24,975.26
584.374,973.52
584.507,974.78
584.641,974.74
584.775,975.32
584.908,977.0
585.042,973.14
585.175,975.34
585.309,977.6
585.443,974.8
585.576,976.92
585.71,976.64
585.844,979.3
585.977,975.68
586.111,978.4
586.244,978.4
586.378,980.62
586.511,980.52
586.645,978.54
586.779,981.68
586.912,978.92
587.046,980.6
587.179,977.56
587.313,980.04
587.446,979.6
587.58,977.74
587.713,978.64
587.847,980.1
587.98,979.84
588.114,979.74
588.247,979.46
588.381,979.92
588.514,978.42
588.648,978.8
588.781,977.68
588.915,979.96
589.048,980.04
589.182,978.64
589.315,979.56
589.449,979.04
589.582,978.8
589.716,977.28
589.849,979.46
589.982,978.76
590.116,980.7
590.249,978.72
590.383,980.86
590.516,978.32
590.65,981.1
590.783,985.4
590.916,980.96
591.05,981.72
591.183,980.52
591.316,983.08
591.45,980.06
591.583,981.42
591.717,980.4
591.85,981.22
591.983,981.92
592.117,980.16
592.25,978.88
592.383,977.8
592.517,978.2
592.65,979.0
592.783,981.3
592.917,980.74
593.05,977.92
593.183,979.82
593.316,978.46
593.45,979.26
593.583,978.6
593.716,980.7
593.85,979.52
593.983,979.76
594.116,979.34
594.249,978.36
594.383,979.64
594.516,981.9
594.649,980.62
594.782,981.72
594.916,980.84
595.049,985.42
595.182,981.98
595.315,982.22
595.449,981.16
595.582,981.68
595.715,982.2
595.848,983.02
595.981,984.62
596.115,985.44
596.248,984.26
596.381,985.04
596.514,986.2
596.647,985.44
596.78,986.14
596.914,990.18
597.047,990.1
597.18,987.44
597.313,986.96
597.446,987.96
597.579,988.76
597.712,989.74
597.846,990.7
597.979,991.68
598.112,990.96
598.245,991.38
598.378,993.1
598.511,992.82
598.644,994.26
598.777,993.86
598.91,994.86
599.043,995.38
599.177,993.62
599.31,994.18
599.443,996.66
599.576,995.6
599.709,995.16
599.842,997.66
599.975,996.78
600.108,996.4
600.241,995.66
600.374,996.94
600.507,996.86
600.64,994.26
600.773,996.7
600.906,997.38
601.039,994.94
601.172,994.56
601.305,996.02
601.438,994.42
601.571,996.82
601.704,995.06
601.837,994.88
601.97,994.34
602.103,996.04
602.236,996.16
602.369,995.34
602.502,994.1
602.635,994.68
602.768,993.14
602.901,995.98
603.034,992.84
603.166,993.46
603.299,992.32
603.432,991.14
603.565,993.32
603.698,992.82
603.831,990.78
603.964,990.96
604.097,988.56
604.23,988.5
604.363,987.94
604.496,988.46
604.628,984.38
604.761,984.62
604.894,983.52
605.027,981.56
605.16,980.5
605.293,981.56
605.426,978.16
605.558,978.14
605.691,978.62
605.824,976.4
605.957,976.58
606.09,973.94
606.223,973.74
606.355,973.62
606.488,972.18
606.621,971.68
606.754,972.36
606.887,969.42
607.019,972.42
607.152,968.26
607.285,970.52
607.418,970.62
607.551,966.5
607.683,966.8
607.816,967.58
607.949,966.24
608.082,966.64
608.214,964.96
608.347,967.7
608.48,966.5
608.613,965.84
608.745,963.56
608.878,967.9
609.011,966.94
609.143,963.26
609.276,963.84
609.409,965.06
609.542,961.48
609.674,961.98
609.807,961.18
609.94,959.9
610.072,963.52
610.205,960.54
610.338,958.86
610.47,958.88
610.603,960.04
610.736,960.84
610.868,960.9
611.001,959.04
611.134,959.72
611.266,958.82
611.399,958.98
611.532,958.9
611.664,958.74
611.797,958.58
611.93,958.42
612.062,959.26
612.195,958.8
612.327,960.04
612.46,958.9
612.593,957.64
612.725,960.12
612.858,959.72
612.99,959.54
613.123,960.88
613.256,959.92
613.388,958.22
613.521,959.3
613.653,960.28
613.786,958.2
613.919,958.68
614.051,958.38
614.184,957.62
614.316,956.04
614.449,959.7
614.581,956.12
614.714,957.18
614.846,957.12
614.979,957.44
615.111,956.32
615.244,958.04
615.376,954.48
615.509,954.86
615.641,957.8
615.774,955.04
615.906,956.0
616.039,953.54
616.171,954.82
616.304,954.98
616.436,954.16
616.569,954.34
616.701,954.62
616.834,957.0
616.966,953.6
617.099,954.56
617.231,957.3
617.364,954.48
617.496,956.06
617.629,954.98
617.761,956.3
617.894,957.1
618.026,954.42
618.158,956.18
618.291,954.52
618.423,954.56
618.556,954.32
618.688,952.78
618.82,956.5
618.953,952.7
619.085,953.34
619.218,952.8
619.35,953.68
619.482,952.76
619.615,953.54
619.747,953.64
619.88,953.1
620.012,953.48
620.144,951.54
620.277,952.12
620.409,951.3
620.541,953.64
620.674,950.32
620.806,952.94
620.939,953.32
621.071,953.1
621.203,951.68
621.336,952.2
621.468,954.36
621.6,955.1
621.733,956.16
621.865,957.94
621.997,961.36
622.13,962.78
622.262,962.26
622.394,965.32
622.526,962.62
622.659,959.7
622.791,958.52
622.923,956.62
623.056,953.18
623.188,953.38
623.32,952.44
623.452,951.58
623.585,949.08
623.717,950.2
623.849,949.48
623.981,950.3
624.114,949.1
624.246,949.32
624.378,946.9
624.511,949.72
624.643,948.9
624.775,948.9
624.907,948.24
625.039,947.88
625.172,948.02
625.304,948.06
625.436,948.06
625.568,949.98
625.701,950.44
625.833,952.62
625.965,951.32
626.097,953.82
626.229,953.7
626.362,956.4
626.494,964.86
626.626,978.06
626.758,1000.78
626.89,1037.32
627.022,1084.06
627.155,1127.2
627.287,1135.46
627.419,1120.12
627.551,1095.02
627.683,1074.12
627.815,1060.0
627.948,1048.1
628.08,1049.46
628.212,1055.16
628.344,1088.46
628.476,1168.64
628.608,1237.0
628.74,1165.84
628.873,1085.92
629.005,1053.4
629.137,1040.44
629.269,1035.58
629.401,1030.26
629.533,1019.8
629.665,1010.22
629.797,1002.64
629.929,998.24
630.061,994.24
630.194,990.3
630.326,991.32
630.458,987.5
630.59,984.92
630.722,980.3
630.854,975.82
630.986,964.9
631.118,961.3
631.25,953.04
631.382,950.56
631.514,948.2
631.646,945.38
631.778,942.84
631.91,944.5
632.042,942.76
632.175,941.78
632.307,941.2
632.439,940.84
632.571,941.16
632.703,940.52
632.835,937.8
632.967,938.64
633.099,938.3
633.231,938.96
633.363,937.48
633.495,938.14
633.627,935.84
633.759,937.5
633.891,935.78
634.023,934.92
634.155,934.62
634.287,935.58
634.419,934.96
634.551,935.66
634.683,932.08
634.815,935.08
634.947,932.14
635.079,934.3
635.21,933.2
635.342,933.0
635.474,933.48
635.606,933.8
635.738,934.68
635.87,933.34
636.002,932.08
636.134,933.8
636.266,934.04
636.398,932.38
636.53,932.56
636.662,933.66
636.794,932.36
636.926,932.28
637.058,928.94
637.19,930.7
637.321,930.38
637.453,929.72
637.585,931.38
637.717,931.18
637.849,928.28
637.981,929.96
638.113,929.38
638.245,929.38
638.377,929.14
638.509,929.34
638.64,927.5
638.772,930.16
638.904,928.4
639.036,927.52
639.168,927.86
639.3,926.86
639.432,926.2
639.563,927.9
639.695,926.8
639.827,927.0
639.959,927.34
640.091,925.24
640.223,925.58
640.355,926.44
640.486,925.6
640.618,925.52
640.75,926.56
640.882,926.42
641.014,925.2
641.146,925.9
641.277,926.04
641.409,923.56
641.541,925.62
641.673,925.22
641.805,925.98
641.936,924.56
642.068,924.26
642.2,923.42
642.332,924.46
642.464,924.58
642.595,923.96
642.727,924.08
642.859,923.06
642.991,922.98
643.123,924.62
643.254,923.32
643.386,922.18
643.518,920.38
643.65,922.72
643.781,923.06
643.913,920.52
644.045,920.52
644.177,920.58
644.309,920.72
644.44,920.64
644.572,921.68
644.704,920.38
644.836,919.48
644.967,920.9
645.099,919.3
645.231,918.7
645.362,919.26
645.494,919.48
645.626,918.28
645.758,919.06
645.889,919.82
646.021,917.3
646.153,918.52
646.285,919.24
646.416,919.56
646.548,917.7
646.68,918.12
646.811,918.76
646.943,918.88
647.075,917.92
647.206,918.42
647.338,916.1
647.47,918.88
647.602,917.56
647.733,916.6
647.865,917.16
647.997,917.46
648.128,917.84
648.26,918.52
648.392,918.18
648.523,916.86
648.655,916.92
648.787,916.9
648.918,916.78
649.05,915.96
649.182,914.28
649.313,915.28
649.445,915.1
649.577,915.6
649.708,915.62
649.84,916.16
649.972,915.4
650.103,916.0
650.235,917.56
650.366,915.26
650.498,914.82
650.63,915.08
650.761,916.14
650.893,914.6
651.025,914.64
651.156,913.0
651.288,916.12
651.419,914.12
651.551,914.6
651.683,916.14
651.814,913.76
651.946,914.5
652.077,913.44
652.209,914.66
652.341,914.74
652.472,916.64
652.604,917.34
652.735,915.28
652.867,916.24
652.999,915.24
653.13,915.82
653.262,914.24
653.393,915.74
653.525,914.48
653.657,915.28
653.788,914.24
653.92,913.3
654.051,914.72
654.183,913.6
654.314,914.58
654.446,914.04
654.578,913.58
654.709,913.1
654.841,911.96
654.972,917.02
655.104,914.48
655.235,913.56
655.367,914.0
655.498,912.1
655.63,912.6
655.762,913.64
655.893,913.38
656.025,912.64
656.156,911.18
656.288,911.86
656.419,911.66
656.551,912.42
656.682,911.42
656.814,911.78
656.945,912.96
657.077,912.26
657.208,912.04
657.34,912.18
657.471,911.98
657.603,911.88
657.734,911.26
657.866,910.44
657.997,910.7
658.129,911.26
658.26,909.64
658.392,909.4
658.523,910.36
658.655,910.8
658.786,908.52
658.918,909.68
659.049,907.34
659.181,909.1
659.312,908.08
659.444,907.6
659.575,908.26
659.707,907.98
659.838,906.86
659.97,908.92
660.101,906.98
660.233,908.06
660.364,905.38
660.496,906.12
660.627,904.62
660.759,903.88
660.89,904.46
661.022,905.2
661.153,903.52
661.285,902.86
661.416,902.92
661.547,901.34
661.679,901.0
661.81,901.88
661.942,902.14
662.073,900.88
662.205,900.4
662.336,900.38
662.468,899.12
662.599,899.98
662.731,898.72
662.862,897.88
662.993,899.32
663.125,898.3
